jointMR1,jointMR2,jointMR3,force
6.041733076723415,5.576148009916374,7.447305794920715,6.150612083702546
5.711205460303454,5.267116119738152,7.028567779547233,5.808731520951017
5.398212461629642,4.974757430738535,6.632544354527173,5.485267143547893
5.101833315996229,4.698180871832317,6.258019146397601,5.179235912329096
4.821195434377249,4.436542826602443,5.903840609304807,4.889707108988155
4.55547188616562,4.1890446094709795,5.568918576209214,4.615799554263763
4.303879013376292,3.9549300760248087,5.252220993433395,4.356678973972933
4.065674169449085,3.733483360366707,4.952770828809315,4.111555505033402
3.8401535761453713,3.524026732741177,4.669643144198708,3.879681334036499
3.626650292372273,3.3259185710433163,4.401962323650724,3.6603484613268424
3.424532289090111,3.138551440158422,4.167685839517815,3.4528865839195744
3.2332006247639278,2.9613502734018406,3.96677188802897,3.256661090940153
3.052087716109095,2.793770650632906,3.775002783456164,3.0710711656073015
2.880655699155134,2.6385069666297825,3.5919682961849855,2.8955479880974404
2.7183948759116943,2.513045014142232,3.445351388432557,2.7295530339297005
2.564822242166802,2.393292786309877,3.3079416063340004,2.5725764627955563
2.4194800921809523,2.2789938717145817,3.175736966058862,2.424135593026755
2.3105805828409496,2.1699033243642596,3.0485430202550488,2.2864269099183767
2.22067965771575,2.0657871517494097,2.926172540091536,2.156362356906286
2.1341636292555237,1.9664218257481418,2.808445248078506,2.0332925789688785
2.050906393485062,1.872259083314343,2.6951875607647247,1.9168484148175318
1.9707865214319478,1.7836403719337435,2.586232340947079,1.8308263860821021
1.8936870862041753,1.6990399660550612,2.4823921770676325,1.7597910937367052
1.8194954964587928,1.6182776647258872,2.3824634789608976,1.6914345756223776
1.7481033360253435,1.5411813211514127,2.286282651839561,1.6256569366185976
1.679406209456602,1.4675864831094474,2.23154657040242,1.5623619868738416
1.6133035932875348,1.3973360494133753,2.1858070881840317,1.501457104716114
1.5496986927915186,1.3302799417069209,2.1411640143284374,1.4428531046308926
1.4884983040306288,1.2662747909065473,2.0975859146462694,1.3864641101191717
1.4296126810043601,1.20518363763785,2.0550424105956253,1.332207431255197
1.372955407708344,1.157855297157543,2.013504139428997,1.2800034467701835
1.3184432749216233,1.1158191164434978,1.9729427159703121,1.2297754904947176
1.2659961615477267,1.0753549288033788,1.9333306959515677,1.1832728594969035
1.215536920341276,1.0364041541504798,1.8946415408417332,1.1480554973854884
1.1669912678580592,0.9989103861342483,1.8568495841036095,1.114413692438332
1.1202876784725,0.9628193116963901,1.8199299988172446,1.0822697737597093
1.0753572823122342,0.9280786336000622,1.7838587666112413,1.0515500616216666
1.0321337669650497,0.8946379958222992,1.7486126478459396,1.0221846586151726
0.9905532828187922,0.8624489117039025,1.7141691529949492,0.994107251818312
0.9505543519000141,0.831464694754906,1.680506515173905,0.9672549253982327
0.9304197182257132,0.8016403920175232,1.6476036637675986,0.941567983094487
0.9115928650805312,0.7729327198920826,1.6154401991088108,0.9169897800607067
0.8932118854358333,0.7453000023349639,1.5839963681642435,0.8934665635692902
0.8752641437155981,0.7240943525661022,1.5532530411849361,0.8709473221100308
0.8577374241942213,0.7089951224366673,1.5231916892804278,0.8493836424385113
0.8406199152995821,0.6942639327273098,1.4937943628777393,0.828729574153619
0.8239001945522137,0.6798896819132317,1.4650436710279595,0.8089415014058466
0.8075672141133046,0.6658616825345678,1.4369227615248665,0.7899780213591701
0.791610286915484,0.6521696432392174,1.4094153018015707,0.7717998290492698
0.7760190733515153,0.6388036516732174,1.3825054605726737,0.7543696082998276
0.7607835684971092,0.6257541581769002,1.3561778901908486,0.7376519283765325
0.7458940898451505,0.613011960247172,1.3304177096881171,0.7216131460754369
0.7313412655296252,0.600568187728248,1.3052104884733935,0.7062213129583574
0.7171160230185014,0.5884142886950772,1.2805422306591052,0.6914460874632612
0.7032095782557393,0.576542015995486,1.2563993599908903,0.6772586516319841
0.6896134252334778,0.5649434144187789,1.2327687053554848,0.6636316322112852
0.6763193259762821,0.5536108084601546,1.2096374868430204,0.6505390258961683
0.6633193009201399,0.5425367906518285,1.1869933023409487,0.6379561284966444
0.6506056196696453,0.5317142104332199,1.1648241146378238,0.625859467820704
0.6381707921175463,0.5211361635339437,1.1431182390160932,0.6142267400772418
0.6260075599115213,0.5107959818446549,1.1218643313139567,0.6030367496130783
0.6141088882537071,0.5006872237520549,1.1010513764372019,0.5922693518080593
0.6024679580191474,0.49080366491554195,1.0806686773027496,0.5819053989615466
0.5910781581799164,0.4811392894641153,1.060705844196427,0.5719266890124267
0.579933078522261,0.47168828159321496,1.0411527845282171,0.5623159169431426
0.5690265026446524,0.46244501754218414,1.0219996929689779,0.553056628726147
0.5583524012251588,0.4534040579340115,1.0032370419532706,0.5441331776786951
0.5479049255470574,0.44456014045991343,0.984855572533621,0.5355306830989734
0.537678401272083,0.43590817289219497,0.966846285572136,0.5272349910632981
0.5276673224511625,0.4274432264096423,0.9492004332560101,0.5192326372704728
0.5178663457629292,0.4191605292204821,0.9319095109240171,0.5115108118254298
0.5082702849707224,0.4110554604686921,0.9149652491916278,0.5040573258599814
0.49887410558917955,0.4031235444101413,0.8983596063629173,0.49686057989392174
0.48967291975190885,0.39536044484571187,0.8820847611179181,0.4899095338448322
0.4806619812720906,0.3877619597991959,0.8661331054645577,0.48319367859979134
0.4718366808882137,0.38032401642834957,0.8504972379447637,0.47670300906678953
0.46319254168746776,0.37304266615807347,0.835169957084768,0.470427998627983
0.45472521469965216,0.3659140800252222,0.820144255080042,0.4643595749210516
0.44643047465474495,0.35893454422506743,0.8054133117057035,0.4584890968788153
0.43830421589757956,0.3521004558499311,0.7909704884436137,0.45280833296095957
0.4303424484533475,0.34540831881096334,0.7768093228177448,0.4473094405152161
0.42254129423791353,0.3388547399344889,0.7629235229297424,0.4419849462086593
0.41489698340717884,0.3324364252247659,0.7493069621869561,0.4368277274729066
0.40740585083997716,0.32615017628539655,0.7359536742155046,0.4318309949099929
0.40006433274921194,0.3199928868920089,0.7228578479512748,0.42698827560848773
0.3928689634161716,0.3139615397091934,0.7100138229020205,0.42229339732210136
0.38581637204316754,0.3080532031450137,0.6980777480570086,0.4177404734655338
0.37890327971984084,0.3022650283367413,0.6887037099336588,0.41332388888472327
0.37212649649868496,0.2965942462617691,0.6799087788547473,0.40903828636090117
0.3654829185755046,0.291038164967954,0.671294397832167,0.4048785538100114
0.3589695255707217,0.2855941669179177,0.662855184517608,0.4008398121410752
0.35258337790759864,0.2802597064420982,0.6545859589743268,0.39691740373900797
0.34632161428361574,0.2750323072955957,0.6464817352122278,0.39310688153921053
0.34018144923139515,0.2699095603140995,0.638537713091814,0.38940399866298553
0.33416017076571103,0.2648891211644049,0.6307492705806916,0.38580469858445676
0.3282551381132669,0.2599687081852473,0.6231119563470373,0.3823051058012172
0.32246377952205996,0.2551461003143871,0.6156214826751254,0.37890151698239755
0.3167835901472791,0.25041913509807234,0.6082737186886849,0.3755903925692302
0.3112121300108104,0.2457857067791888,0.6010646838684799,0.3723683488044972
0.3057470220315416,0.24124376446059295,0.5939905418511155,0.36923215016849664
0.3003859501237723,0.2367913103402757,0.5870475944966513,0.36617870220033893
0.29512665736114496,0.2324263980151802,0.5802322762131493,0.36320504468449627
0.28996694420361685,0.2281471308506355,0.5735411485268231,0.36030834518359117
0.28490466678509413,0.22395166041251927,0.5669708948869445,0.3574858928994075
0.2799377352594429,0.21983818495939553,0.5605183156951556,0.35473509284505317
0.2750641122026875,0.2158049479920072,0.5541803235492933,0.35205346031210594
0.2702818110692898,0.21185023685762297,0.5479539386922647,0.3494386156174195
0.26558889470049196,0.20797238140685756,0.5418362846569453,0.34688827911507614
0.26098347388278376,0.20416975270069723,0.5358245840984617,0.3444002664597313
0.25646370595463125,0.2004407617655666,0.5299161548056062,0.3419724841083219
0.25202779345968196,0.19678385839437593,0.5241084058835035,0.3396029250477874
0.24767398284472864,0.1931975299915825,0.5183988340999941,0.33728966473711336
0.24340056320078393,0.18968030046039216,0.5127850203885298,0.3350308572526039
0.23920586504568264,0.18623072913031616,0.507264626500709,0.33282473162588766
0.2350882591466914,0.18284740972337563,0.501835391801869,0.3306695883647011
0.23212159764199497,0.179528969357331,0.49649513020345615,0.32856379614701975
0.22926292740520446,0.1762740675843862,0.4912417272261702,0.3265057886795998
0.22645750860900116,0.1730813954638871,0.4860731371881404,0.3244940617124659
0.22370396443080579,0.16994967466760305,0.48098738051265455,0.32252717020131305
0.22100096395212931,0.16687765661624784,0.4759825411501948,0.3206037256102244
0.21834722037403254,0.16386412164595096,0.47105676410977915,0.31872239334749447
0.2157414893074583,0.16090787820345656,0.4662082530948135,0.31688189032772673
0.21318256713518463,0.15800776206887587,0.4614352682388889,0.31508098265373463
0.2106692894422916,0.1551626356048779,0.45673612393714547,0.31331848341210883
0.2082005295121702,0.1523713870312505,0.45210918676902856,0.31159325057663545
0.2057751968852335,0.1496329297238109,0.4475528735084433,0.30990418501405786
0.20339223597761494,0.14694620153669566,0.44306564921749336,0.3082502285869516
0.2010506247572581,0.1443101641470951,0.4386460254201514,0.30663036234876573
0.19874937347491708,0.14172380242155028,0.4342925583523827,0.3050436048263363
0.19648752344769477,0.1391861238029576,0.43000384728538354,0.30348901038541976
0.19426414589285196,0.1366961577174737,0.4257785329187562,0.30196566767503324
0.19207834080971847,0.13425295500054293,0.42161529584057233,0.30047269814659916
0.18992923590763428,0.13185558734130884,0.4175128550514182,0.29900925464410644
0.18781598557793813,0.1295031467446985,0.41346996654964174,0.29757452006169366
0.1857377699081098,0.1271947450105019,0.40948542197514404,0.2961677060652474
0.18369379373625344,0.12492951322880255,0.40555804730917244,0.29478805187478657
0.18168328574419115,0.12270660129113262,0.40168670162769327,0.29343482310456714
0.17970549758750964,0.12052517741676647,0.3978702759060164,0.2921073106580077
0.17775970306097721,0.11838442769357985,0.39410769187246,0.29080482967467763
0.1758451972978169,0.11628355563293372,0.39039790090892956,0.28952671852673967
0.17396129600138738,0.11422178173806455,0.38673988299639106,0.2882723378623698
0.17210733470788855,0.11219834308547957,0.38313264570329086,0.2870410696938059
0.17028266807876646,0.11021249291888505,0.37957522321508197,0.28583231652779767
0.16848666922155317,0.1082635002551863,0.3760666754030766,0.28464550053634713
0.16671872903792978,0.10635064950212728,0.3726060869309382,0.28348006276573456
0.164978255597856,0.10447324008714745,0.3691925663971929,0.28233546238193064
0.16326467353865823,0.10263058609705647,0.36582524551221396,0.28121117595059164
0.16157742348801837,0.10082201592814147,0.36250327830819873,0.2801066967499282
0.15991596150984988,0.09904687194633824,0.35922584038073,0.2790215341148267
0.15827975857209325,0.09730451015711497,0.35599212816056336,0.27795521281068036
0.1566683000355045,0.09559429988472554,0.3528013582143512,0.2769072724354753
0.15508108516255065,0.09391562346051216,0.34965276657307043,0.27587726684874286
0.15351762664556506,0.09226787591994187,0.34654560808697066,0.2748647636260639
0.15197745015335223,0.09065046470808066,0.3434791558059087,0.2738693435378795
0.1504600938954661,0.08906280939321562,0.3404527003840019,0.2728906000514223
0.14896510820342154,0.08750434138835231,0.33746554950755314,0.27192813885464523
0.14749205512812844,0.08597450368031948,0.33451702734527133,0.27098157740108536
0.14604050805287033,0.08447275056623174,0.3316064740198388,0.2700505444746434
0.1446100513211785,0.08299854739706161,0.32873324509992186,0.26913467977332606
0.14320027987897999,0.08155137032808982,0.32589671111176477,0.2682336335110337
0.141810798930426,0.08013070607600739,0.3230962570695388,0.2673470660365306
0.14044122360683137,0.07873605168245382,0.32033128202365746,0.2664746474687752
0.13909117864818205,0.07736691428378276,0.31760119862630476,0.26561605734782856
0.1377602980966895,0.07602281088685645,0.3149054327134526,0.26477098430060214
0.13644822500189432,0.07470326815067455,0.3122434229026758,0.2639391257207394
0.13515461113684268,0.07340782217365507,0.3096146202061083,0.26312018746196486
0.13387911672487915,0.07213601828638797,0.3070184876579043,0.26231388354426266
0.13262141017662027,0.07088741084969027,0.30445449995560314,0.26151993587228456
0.1313811678366905,0.06966156305779894,0.30192214311482,0.26073807396541376
0.1301580737398213,0.06845804674654163,0.29942091413670524,0.2599680346989389
0.12895181937593114,0.06727644220633408,0.2969503206876516,0.2592095620558241
0.1277621034638194,0.06611633799985625,0.29450988079073537,0.2584624068885812
0.12658863173312468,0.06497733078426557,0.2920991225284122,0.2577263266907763
0.12543111671421167,0.06385902513781092,0.28971758375600376,0.25700108537773325
0.12428927753566554,0.06276103339071723,0.28736481182553075,0.256286453076003
0.12316283972908632,0.06168297546021076,0.28504036331947136,0.255582205921206
0.12205153504088931,0.0606244786895663,0.28274380379403596,0.2548881258638617
0.12095510125082956,0.05958517769105723,0.280474707531573,0.2542040004828448
0.11987328199698075,0.05856471419269302,0.2782326573017355,0.25352962280612307
0.11880582660691014,0.057562736888638194,0.27601724413104756,0.2528647911384489
0.11775248993480239,0.05657890129320306,0.2738280670805384,0.2522093088956951
0.11671303220429527,0.05561286959830733,0.27166473303111216,0.25156298444553304
0.11568721885680064,0.05466431053431528,0.26952685647634644,0.2509256309541779
0.11467482040509333,0.053732899234150616,0.2674140593224179,0.25029706623892845
0.11367561229196005,0.052818317100595175,0.2653259706948743,0.2496771126262457
0.1126893747537088,0.05192025167668604,0.2632622267519735,0.2490655968151317
0.11171589268834847,0.05103839651912348,0.26122247050433556,0.24846234974557121
0.11075495552825504,0.05017245107460741,0.25920635164065065,0.24786720647182137
0.10980635711714992,0.04932212055902144,0.25721352635920836,0.24728000604033676
0.10886989559122229,0.04848711583938939,0.25524365720501585,0.2467005913721313
0.10794537326423453,0.04766715331852567,0.2532964129122879,0.2461288091493866
0.10703259651645719,0.047518873728925715,0.2513714682520949,0.24556450970612625
0.10613137568728526,0.04738397666868144,0.249468503884972,0.2450075469227831
0.10524152497139472,0.04724705174034438,0.24758720621829355,0.24445777812449543
0.1043628623183036,0.047108226874236325,0.2457272672682269,0.24391506398297597
0.10349520933520778,0.04696762484094941,0.24388838452609418,0.24337926842180335
0.10263839119296653,0.04682536344493782,0.24207026082896577,0.24285025852499492
0.10179223653511904,0.04668155571096422,0.2402726042343275,0.2423279044487259
0.10095657738981673,0.04653631006366166,0.2384951278986669,0.2418120793360629
0.10013124908456247,0.04638973050046147,0.23673754995982477,0.24130265923459251
0.09931609016365056,0.04624191675813827,0.23499959342297383,0.2407995230168238
0.09851094230820712,0.046092964473201326,0.23328098605008618,0.24030255230325492
0.0977156502587343,0.045942965336358,0.2315814602527584,0.23981163138799583
0.09693006174006466,0.045792007241275634,0.22990075298826818,0.23932664716684515
0.09615402738863776,0.04564017442783963,0.228238605658744,0.23884748906772374
0.09538740068201285,0.04548754762011986,0.2265947640133288,0.23837404898337258
0.09463003787053587,0.045334204159235614,0.2249689780532329,0.23790622120622457
0.09388179791108253,0.0451802181313109,0.22336100193956376,0.23744390236536755
0.09314254240280143,0.045025660490691566,0.2217705939038357,0.23698699136551557
0.09241213552478567,0.04487059917861347,0.22019751616105854,0.23653538932791254
0.09169044397560275,0.04471509923747197,0.21864153482531523,0.23608899953309248
0.0909773369146164,0.04455922292087089,0.21710241982773648,0.23564772736542872
0.09027268590503662,0.044403029799592875,0.21557994483678544,0.23521148025940095
0.08957636485863613,0.04424657686365008,0.21407388718077391,0.23478016764751736
0.08888824998207434,0.04408991862055667,0.21258402777252772,0.23435370090983107
0.08820821972477255,0.04393310718995991,0.21111015103612418,0.2339319933249893
0.08753615472828541,0.043776192394768376,0.20965204483563382,0.23351496002276043
0.08687193777711705,0.04361922184890177,0.20820950040579111,0.23310251793798525
0.08621545375093137,0.04346224104178964,0.20678231228453137,0.23269458576589877
0.08556658957810825,0.0433052934197381,0.20537027824732612,0.23229108391877457
0.08492523419059983,0.04314842046427947,0.20397319924325585,0.23189193448384404
0.08429127848004164,0.04299166176761515,0.20259087933276398,0.23149706118244434
0.08366461525507668,0.04283505510526098,0.2012231256270307,0.23110638933035246
0.08304513919985101,0.04267863650599435,0.1998697482289138,0.23071984579926322
0.08243274683364082,0.0425224403192086,0.19853056017540416,0.2303373589793703
0.08182733647157425,0.04236649927976166,0.19720537738154564,0.22995885874301428
0.08122880818641037,0.042210844570420236,0.19589401858577027,0.22958427640935872
0.08063706377134061,0.04205550588198004,0.19459630529660132,0.22921354471006009
0.08005200670377924,0.04190051147115437,0.1933120617406825,0.2288465977558972
0.07947354211010976,0.041745888216307536,0.19204111481208463,0.228483371004329
0.07890157673135675,0.04159166167111794,0.1907832940228562,0.22812380122794756
0.07833601888975245,0.041437856116240734,0.18953843145477123,0.2277678264837979
0.07777677845616976,0.041284494609052036,0.18830636171223825,0.2274153860835359
0.07722376681839319,0.04113159903153507,0.18708692187633624,0.22706642056439547
0.07667689685020196,0.04097919013638618,0.18587995145993808,0.22672087166094052
0.07613608288123838,0.040827287591403194,0.1846852923638913,0.22637868227757404
0.07560124066763751,0.04067591002221316,0.18350278883421933,0.2260397964617818
0.07507228736339389,0.04052507505341163,0.18233228742031504,0.22570415937808597
0.07454914149244243,0.04037479934816457,0.18117363693409705,0.2253717172826868
0.07403172292143131,0.04022509864633084,0.18002668841009317,0.22504241749876944
0.07351995283316523,0.04007598780116017,0.1788912950664332,0.22471620839245718
0.07301375370069918,0.03992748081462072,0.17776731226671272,0.224393039349388
0.0725130492620622,0.03977959087140526,0.1766545974827114,0.22407286075189822
0.07201776449559233,0.039632330371663915,0.17555301025793524,0.2237556239567924
0.07152782559586429,0.03948571096250986,0.17446241217195912,0.22344128127368207
0.07104315995019245,0.03933974356834968,0.1733826668055496,0.2231297859438758
0.07056369611569119,0.03919443842007053,0.17231363970654123,0.2228210921198061
0.07008936379687733,0.03904980508313771,0.17125519835644765,0.222515154844973
0.06962009382379744,0.038905852484634185,0.17020721213778467,0.22221193003439269
0.06915581813066565,0.038762588939284526,0.1691695523020884,0.22191137445553427
0.06869646973499671,0.03862002217450489,0.16814209193860408,0.22161344570973032
0.06824198271722004,0.03847815935450549,0.16712470594363227,0.2213181022140486
0.06779229220076097,0.038337007103487974,0.16611727099050988,0.22102530318361052
0.06734733433257617,0.0381965715279714,0.16511966550021095,0.2207350086143423
0.06690704626412974,0.03805685823827054,0.16413176961255105,0.22044717926614973
0.06647136613279819,0.037917872369171324,0.16315346515797668,0.2201617766465018
0.06604023304369194,0.037779618599820264,0.16218463562992413,0.21987876299441
