jointHR1,jointHR2,jointHR3,force
6.231264119657794,5.614402360305359,7.960388732356418,6.044544223255337
5.885288014114854,5.311563713529009,7.508671311853231,5.71410734461803
5.557967261366094,5.0247398071890945,7.081449874234167,5.40120782443058
5.2483060489289395,4.7530904069564865,6.677414696877618,5.104924461921928
4.955361545180612,4.495819231406392,6.295325770910274,4.824384262984867
4.678241083697408,4.252171655472495,5.934009095849858,4.558759921091236
4.416099497173713,4.021432533840763,5.592353171096041,4.307267429771381
4.1681365929755865,3.80292413802022,5.269305673813734,4.069163819788268
3.9335947628057824,3.5960042011548046,4.96387031330825,3.843745014495166
3.711756719356605,3.4000640649504956,4.6751038525176725,3.630343797205975
3.5048660057131023,3.214526923385546,4.402113287745725,3.428327884729176
3.310363448189885,3.038846158150073,4.144053178229844,3.237098101522063
3.126288534881343,2.872503761025153,3.9001231175856437,3.056086649211088
2.9520869840584667,2.7150088386616567,3.669565339591651,2.884755466498656
2.787233933785279,2.5658961954560127,3.451662451178459,2.7225946747365626
2.6312323803270283,2.424724990444905,3.2457352858654644,2.5691211046928153
2.4836116994660564,2.2910774643536573,3.098956952880112,2.4238769002720306
2.3512876892543995,2.1645577331350094,2.9774500961710997,2.2864281951710335
2.242008358518856,2.0447906445261883,2.8603966622122323,2.156363858661055
2.156091230342604,1.9314206943334968,2.7476358230457656,2.038325798866573
2.073306032207938,1.824110999325444,2.63901252307489,1.9403230187575429
1.9935399259338626,1.7225423237783108,2.534377272480358,1.8467805807538824
1.9166841185725736,1.626412156872411,2.433585948021139,1.757499525025874
1.8426337177200354,1.5354338382835175,2.3406296453488387,1.6899706993682084
1.7712875919969029,1.449335729452717,2.26091840178424,1.6264793844703522
1.7025482365150975,1.384368530826816,2.2107468674508137,1.5653028152196333
1.6363216431518997,1.3345746829494942,2.167299215806199,1.5063575395183164
1.5725171754598022,1.2865800106238874,2.1248597796668003,1.4495630982121435
1.5110474480465177,1.240319895364446,2.083400217178723,1.3948419180157328
1.4518282102654234,1.1957320317105626,2.042893121679863,1.3421192082646758
1.394778234062467,1.1527563445625768,2.003311987433784,1.2913228613576246
1.3398192058310288,1.1113349094703135,1.96463117669656,1.2423833567565217
1.2896881032661764,1.071411875768709,1.9268258880629499,1.1952336684178295
1.2422832702619075,1.0329333924588187,1.889872126040505,1.1498091755321898
1.1966158542951169,0.9958475367361849,1.8537466718022984,1.106047576454293
1.1526227309051782,0.9601042450719751,1.818427055070991,1.0638888057089753
1.1102430514857908,0.9256552467557574,1.7838915270888864,1.02327495396365
1.0694181616256198,0.8924539998119724,1.7501190346304856,1.0024817787069764
1.0404974918861727,0.8604556292053288,1.7170891950158227,0.9835132152857595
1.0202043434513686,0.8296168672533982,1.684782272084584,0.9651218159975216
1.0003773634456445,0.7998959961675552,1.6531791530926285,0.9472837739918407
0.9810035730776712,0.7712527926462712,1.6222613264941117,0.9299764296258923
0.962070418728938,0.7436484744474604,1.5920108605739078,0.91317821163526
0.9435657564523978,0.7170456488692053,1.5624103828964635,0.8968685813895891
0.9254778370719243,0.6914082630707047,1.5334430605386062,0.881027980070049
0.9077952918584848,0.6667015561677309,1.5050925810751425,0.8656377786142209
0.8905071187599232,0.6428920130392252,1.4773431342873575,0.8506802302822044
0.8736026691621896,0.619947319783917,1.4501793945657389,0.8361384257054812
0.8570716351607619,0.5978363207680631,1.4235865039794153,0.8219962502874153
0.8409040373218699,0.576528977207459,1.3975500559859202,0.8082383438312108
0.8250902129139646,0.5559963272289566,1.3720560797559564,0.7948500622777347
0.8096208045906805,0.5362104473586403,1.3470910250888704,0.7818174414418267
0.7944867495072925,0.5171444153857244,1.3226417478955295,0.769127162641643
0.7796792688534071,0.49877227455303286,1.2986954962262336,0.7567665201211357
0.7651898577853385,0.4850920220621612,1.2752398968222067,0.7447233901710864
0.7510102757422774,0.47524092094058656,1.252262942170077,0.7329862018591066
0.7371325371310211,0.4656175857821434,1.229752978039587,0.7215439092837665
0.7235489023646464,0.45621550412150047,1.207698691485572,0.7103859652725091
0.7102518692411004,0.4470284008982349,1.1860890992960171,0.6995022964472483
0.697234164648255,0.4380502280488596,1.1649135368687276,0.6888832795856001
0.6844887365825183,0.4292751546037342,1.1441616474998586,0.6785197192094822
0.6720087464686116,0.4206975572632071,1.12382337206822,0.6684028263364601
0.6597875617686387,0.412312011428674,1.103888939099928,0.6585241983326102
0.6478187488690333,0.40411328266548174,1.0843488551985758,0.6488757998089364
0.636096066234451,0.39609631857582284,1.0651938958267229,0.6394499445064209
0.6246134578181062,0.38825624106087553,1.0464150964250396,0.6302392781177134
0.6133650467184744,0.3805883389525284,1.0280037438560163,0.6212367619962026
0.6023451290726987,0.3730880609960453,1.0099513681596548,0.612435657705826
0.5915481681774167,0.36575100916598313,0.9922497346090772,0.6038295123674372
0.5809687888281072,0.35857293229859377,0.9748908360544586,0.5954121447598856
0.5706017718684102,0.3515497200248031,0.9578668855441596,0.5871776321361829
0.5604420489412187,0.3446773969886856,0.9411703092123795,0.5791202977172174
0.5504846974336722,0.3379521173371193,0.9247937394230735,0.571234698827465
0.5407249356084944,0.33137015946706183,0.9087300081602901,0.5635156156390291
0.5311581179144261,0.3249279210175622,0.8943833131558,0.5559580404921106
0.5217797304687902,0.31862191409431173,0.8816295395309136,0.548557167761709
0.512585386705509,0.3124487607151386,0.8691359430848503,0.5413083842419336
0.5035708231821595,0.30640518846547193,0.8568951073283428,0.534207260020837
0.4947318955399074,0.30048802635334027,0.8448998994984497,0.5272495398200885
0.48606457461041286,0.29469420085402476,0.8331434575487944,0.5204311347751879
0.4775649426640307,0.28902073213498014,0.8216191777895072,0.5137481146331779
0.4692291897938561,0.2834647304521246,0.8103207031432382,0.507196700346053
0.4610536104303885,0.27802339270905296,0.7992419119853802,0.5007732570391903
0.4530345999817882,0.2726939991711578,0.7883769075383109,0.4944742873352408
0.4452201750202509,0.26747391032705514,0.7777200077910502,0.48829642501493364
0.4386951043998333,0.2623605638900993,0.7672657359172281,0.48223642899723507
0.43230420414901594,0.2573514719331378,0.7570088111656803,0.4762911776222251
0.4260437357993046,0.2524442181500064,0.7469441401993386,0.47045766322093313
0.4199100976893045,0.24763645523759736,0.7370668088593535,0.46473298695720405
0.4138998189337573,0.24292590239264478,0.7273720743325951,0.4591143539274541
0.40800955368638936,0.2383103429176714,0.7178553577018325,0.4535990685049175
0.4022360756815644,0.23378762193081914,0.7085122368589587,0.4481845299156969
0.39657627304051934,0.22935564417455634,0.6993384397626692,0.4428682280345889
0.3910271433287028,0.22501237191851053,0.6903298380229703,0.43764773938930024
0.38558578885143646,0.22075582295190588,0.6814824407958116,0.43252072336226105
0.3802494121757887,0.21658406866132796,0.672792388972014,0.4274849185798114
0.3750153118671773,0.2124952321897382,0.6642559496454898,0.4225381394790783
0.3698808784298162,0.2084874866728782,0.6558695108465318,0.41767827304336463
0.3648435904406895,0.2045590535493942,0.6476295765266955,0.41290327569735746
0.3599010108672668,0.20070820094119157,0.6395327617824969,0.40821117035391746
0.3550507835596892,0.1969332421007164,0.6315757883058157,0.40360004360464513
0.35029062990862914,0.1932325339220078,0.6237554800495235,0.39906804304682986
0.34561834566048916,0.18960447551254722,0.6160687590974554,0.39461337473977237
0.34103179788203275,0.1860475068230567,0.6085126417284084,0.3902343007838452
0.3365289220669526,0.18256010733255212,0.6010842346643863,0.3859291370159954
0.33210771937726685,0.17914079478609257,0.593780731493819,0.3816962508157326
0.3277662540128037,0.17578812398278731,0.586599409260965,0.3775340590159494
0.3235026507023819,0.17250068561174636,0.5795376252131617,0.37344102591322326
0.31931509231062405,0.16927710513378014,0.5725928136980214,0.369415661372526
0.31520181755465393,0.16611604170675198,0.5657624832030794,0.3654565190215327
0.31116111882522357,0.16301618715260313,0.5590442135307867,0.36156219452997423
0.307191340107098,0.15997626496415074,0.5524356531021091,0.3577313239697159
0.30329087499379054,0.1569950293498782,0.545934516382345,0.3539625822514672
0.29945816479199483,0.15407126431499207,0.5395385814230966,0.35025468163424606
0.29569169671129725,0.1512037827771373,0.5332456875146518,0.3466063703039205
0.2919900021349814,0.14839142571521546,0.5270537329433196,0.3430164310173403
0.2883516549679497,0.14563306134984,0.5209606728485534,0.33948367980876015
0.2847752700579915,0.1429275843540342,0.5149645171749506,0.33600696475541736
0.28125950168681946,0.1402739150928325,0.5090633287144841,0.3325851647993001
0.2778030421274775,0.13767099889053347,0.5032552212345387,0.3292171886222899
0.2744046202649004,0.13511780532438533,0.4975383576875796,0.325901973572011
0.27106300027656494,0.13261332754356991,0.4919109484984656,0.32263848463585865
0.26777698037033,0.13015658161238663,0.48637124992564473,0.3194257134608062
0.26454539157671253,0.12774660587660203,0.4809175624926536,0.31626267741671804
0.2613670965929822,0.12538246035197298,0.47554822948652276,0.31314841870101406
0.25824098867659284,0.12306322613400356,0.4702616355198679,0.31008200348263965
0.2551659905855948,0.12078800482803986,0.46505620515360957,0.3070625210834016
0.25214105356378774,0.11855591799884446,0.45993040157741727,0.30408908319483596
0.2491651563684928,0.1163661066388404,0.45488272534512353,0.301160823128858
0.2462373043389227,0.11421773065424978,0.4499117131624939,0.29827689510054656
0.2433565285032364,0.11210996836838316,0.4450159367248665,0.29543647354149066
0.2405218847224565,0.11004201604138064,0.44019400160230826,0.29263875244221194
0.23773245286952238,0.1080130874057309,0.43544454617004424,0.28988294472225234
0.23498733604183591,0.10602241321692762,0.4307662405820405,0.2871682816265862
0.23228565980574012,0.10406924081865543,0.42615778578571484,0.2844940121470901
0.22962657147144933,0.1021528337219193,0.42161791257586434,0.2818594024678608
0.2270092393970221,0.10027247119756677,0.41714538068598706,0.2792637354332437
0.22443285232003835,0.0984274478816689,0.41273897791526304,0.2767063100374808
0.22189661871571037,0.09661707339325776,0.4083975192895617,0.27418644093495415
0.21939976618021745,0.09484067196393642,0.40411984625490116,0.2717034579700431
0.2169415408381164,0.09309758207890084,0.3999048259018887,0.2692567057256715
0.21452120677273495,0.091387156128934,0.39575135021972163,0.26684554308966346
0.21213804547851017,0.0897087600729547,0.3916583353784169,0.2644693428380702
0.20979135533428378,0.08806177311071561,0.3876247210379893,0.26212749123467854
0.20748045109661645,0.0864455873652703,0.38364946968337366,0.2598193876459458
0.20520466341222693,0.08485960757484556,0.3797315659839333,0.25754444417064487
0.20296333834870744,0.08330325079376188,0.3758700161764674,0.25530208528354287
0.20075583694270666,0.08177594610207684,0.3720638474706688,0.25309174749246877
0.19858153476481205,0.08027713432362282,0.3683121074760516,0.25091287900815407
0.19643982150039901,0.07880626775214117,0.3646138636493974,0.24876493942626968
0.19433010054575223,0.0773628098852146,0.3609682027618326,0.24664739942110203
0.1922517886187951,0.07594623516572019,0.3573742303846792,0.2445597404503468
0.19020431538379706,0.07455602873053635,0.353831070393271,0.2425014544705197
0.18818712308945867,0.07319168616624527,0.3503378644879649,0.24047204366251038
0.18619966621980205,0.07185271327158693,0.34689377173160785,0.2384710201668301
0.18424141115732262,0.07053862582642878,0.34349796810276634,0.23649790582812313
0.18231183585788335,0.06924894936702919,0.3401496460640481,0.23455223194853794
0.18041042953685726,0.0679832189673708,0.33684801414488486,0.23263353904956682
0.17853669236604797,0.06674097902637022,0.33359229653817346,0.23074137664199112
0.17669013518093918,0.06552178306075174,0.3303817327101948,0.22887530300357786
0.17487027919784653,0.06432519350340715,0.3272155770232714,0.22703488496419771
0.17307665574056313,0.06315078150705267,0.32409309837063316,0.2252196976980467
0.1713088059761117,0.06199812675300875,0.32101357982300205,0.22342932452267053
0.16956628065923174,0.06086681726493892,0.3179763182864126,0.22166335670450585
0.16784863988524973,0.05975644922738377,0.3149806241708262,0.21992139327066462
0.16615545285099426,0.05887320015693043,0.31202582106910004,0.21820304082670253
0.16448629762343547,0.05825150306296323,0.30911124544590574,0.21650791338012526
0.1628407609157419,0.05764081782122854,0.3062362463361994,0.21483563216939636
0.1612184378704623,0.05704091337382,0.30340018505287847,0.21318582549822238
0.15961893184955261,0.05645156466933432,0.3006024349032572,0.21155812857490433
0.15804185423098133,0.05587255246132494,0.29784238091403115,0.20995218335654883
0.15648682421165994,0.0553036631151399,0.29511941956439736,0.20836763839794825
0.15495346861645304,0.05474468842274394,0.2924329585270249,0.2068041487049442
0.15344142171303748,0.05419542542514966,0.2897824164165772,0.20526137559209803
0.1519503250323882,0.053655676242100214,0.28716722254550464,0.20373898654450204
0.15047982719467773,0.05312524790866091,0.2845868166868344,0.20223665508357008
0.14902958374038805,0.05260395221840086,0.2820406488437033,0.20075406063665677
0.14759925696643955,0.05209160557285386,0.27952817902538185,0.19929088841035855
0.1461885157671527,0.05158802883697067,0.27704887702955805,0.1978468292673583
0.1447970354798649,0.051093047200283626,0.2746022222306512,0.19642157960668136
0.14342449773503224,0.05060649004352147,0.27218770337394393,0.1950148412472373
0.1420705903106549,0.05012819081042508,0.269804818375321,0.19362632131452484
0.14073500699087027,0.04965798688452561,0.2674530741264223,0.19225573213038652
0.13941744742856527,0.049195719470659816,0.2651319863050172,0.19090279110570316
0.1381176170118652,0.04874123348100812,0.2628410791904219,0.18956722063592088
0.13683522673436338,0.048294377425452395,0.2605798854837833,0.18824874799931357
0.1355699930689605,0.04785500330605663,0.2583479461330662,0.18694710525788172
0.13432163784518852,0.04742296651549138,0.2561448101625843,0.1856620291607976
0.13308988812989947,0.04699812573922013,0.25397003450692,0.18439326105030848
0.13187447611120384,0.04658034286128754,0.25182318384909186,0.1831405467700143
0.130675138985549,0.046169482873545165,0.24970383046282296,0.18190363657543843
0.12949161884783073,0.04576541378816856,0.2476115540587822,0.18068228504681608
0.12832366258443767,0.04536800655331852,0.24554594163466592,0.1794762510040257
0.12717102176913037,0.04497713497181366,0.24350658732899721,0.17828529742359334
0.1260334525616626,0.0445926756226801,0.2414930922785241,0.17710919135770203
0.12491071560905392,0.04421450778545777,0.2395050644791037,0.17594770385514216
0.12380257594942895,0.0438425133671454,0.23754211864996022,0.1748006098841404
0.1227088029183388,0.043476576831670166,0.23560387610121536,0.17366768825700737
0.12162917005748713,0.04311658513177752,0.23368996460458735,0.17254872155654835
0.12056345502578336,0.04276242764323668,0.2318000182671629,0.17144349606418074
0.1195114395126492,0.04241399610126939,0.2299336774081473,0.17035180168970637
0.11847290915350944,0.04207118453910541,0.2280905884385065,0.16927343190268992
0.11744765344739783,0.04173388922857835,0.22627040374341,0.16820818366539134
0.11643546567661339,0.04140200862267929,0.22447278156739414,0.16715585736721042
0.11543614282836395,0.041075443299987247,0.22269738590216792,0.1661162567605951
0.11444948551833706,0.04075409591089996,0.2209438863769797,0.1650891888983728
0.11347529791613936,0.040437871125593605,0.21921195815147487,0.16407446407246254
0.11251338767254865,0.0401266755836418,0.21750128181097028,0.16307189575392872
0.11156356584852561,0.03982041784522694,0.2158115432640788,0.16208130053433836
0.11062564684593107,0.03951900834388333,0.2141424336426161,0.1611024980683848
0.10969944833990075,0.03922235934070961,0.21249364920372815,0.16013531101774262
0.1087847912128283,0.03893038487999356,0.2108648912341733,0.15917956499612027
0.10788149948991022,0.038643000746196754,0.2092558659567061,0.1582350885154766
0.10698940027620724,0.038360124422244124,0.20766628443849755,0.15730171293337114
0.1061083236951797,0.03808167504906945,0.20609586250154543,0.15637927240141627
0.10523810282865487,0.03780757338637053,0.20454432063501327,0.15546760381480268
0.1043785736581852,0.0375377417745264,0.2030113839094505,0.15456654676287016
0.10352957500775933,0.037272104097634595,0.2014967818928446,0.15367594348069558
0.10269094848782817,0.037010585747625724,0.20000024856845378,0.15279563880167168
0.10186253844060905,0.03675311358941824,0.19852152225437658,0.15192548011105306
0.101044191886634,0.03649961592707107,0.19706034552481344,0.1510653173004422
0.10023575847250699,0.03625002247090248,0.1956164651329717,0.15021500272319283
0.09943709041983828,0.03600426430553616,0.19418963193558247,0.14937439115070897
0.09864804247532383,0.03576227385884634,0.19277960081897616,0.14854333972961528
0.09786847186193898,0.035523984871764,0.19138613062668575,0.14772170793977923
0.09709823823121749,0.03528933236891907,0.1900089840885386,0.1469093575531626
0.09633720361658599,0.035058252630086995,0.18864792775119477,0.1461061525934836
0.09558523238772715,0.03483068316241156,0.1873027319101035,0.14531195929667015
0.09484219120594467,0.03460656267337836,0.18597317054283757,0.14452664607208388
0.09410794898050373,0.03438583104451254,0.18465902124377398,0.14375008346449852
0.09338237682592104,0.03416842930577657,0.18336006516008752,0.14298214411681506
0.09266534802018195,0.03395429961064533,0.18207608692902943,0.14222270273349422
0.09195673796385928,0.033743385211832844,0.18080687461645284,0.1414716360446921
0.09125642414011165,0.03353563043765362,0.17955221965656487,0.1407288227710825
0.09056428607553935,0.033330980668994314,0.1783119167928675,0.13999414358934897
0.0898802053018754,0.03312938231687779,0.1770857640202672,0.1392674810983332
0.08920406531849207,0.03293078280059791,0.1758735625283181,0.13854871978582362
0.08853575155570176,0.03273513052641064,0.1746751166455811,0.13783774599597076
0.08787515133883278,0.032542374866760704,0.173490233785067,0.13713444789731574
0.0872221538530617,0.03235246614002707,0.17231872439073848,0.1364387154514169
0.08657665010898224,0.032165355590772826,0.17116040188505344,0.1357504403820641
0.08593853290889458,0.03198099537048271,0.17001508261751863,0.13554279022202853
0.0853076968137963,0.03179933851877237,0.168882585814234,0.13539432537118368
0.08468403811105912,0.03162033894505667,0.16776273352840754,0.13524488625043574
0.08406745478277355,0.03144395141066214,0.1666553505918147,0.13509449805634077
0.08345784647474747,0.031270131511370036,0.16556026456718498,0.13494318551081097
0.08285511446614119,0.031098835660377522,0.16447730570149388,0.13479097287068165
0.08225916163972546,0.030930021071665204,0.16340630688013946,0.1346378839370319
0.08166989245274675,0.030763645743756896,0.16234710358198678,0.13448394206426395
0.08108721290838611,0.030599668443863304,0.16129953383525897,0.1343291701689573
0.08051103052779768,0.03043804869239619,0.16026343817425626,0.134173590738497
0.0799412543227132,0.030278746747842034,0.15923865959688888,0.1340172258394926
0.07937779476860002,0.030121723591987837,0.15822504352300126,0.13386009712598668
0.07882056377835867,0.029966940915485574,0.15722243775347478,0.13370222584746694
0.07826947467654904,0.029814361103748133,0.15623069243009113,0.13354363285668447
0.0777244421741326,0.029663947223166565,0.15524965999613838,0.13338433861728616
0.07718538234371791,0.02951566300764019,0.15427919515774735,0.13322436321126785
