jointMR1,jointMR2,jointMR3,force
6.011731970613467,5.615354016874886,7.492057425424708,6.150612083702513
5.683333038830174,5.304794486184137,7.069611651027511,5.8108070079405705
5.372350314593917,5.01099176854736,6.670087053956708,5.489240544333037
5.07786934903254,4.733050263438194,6.292256150704521,5.1849400675015795
4.799023536763946,4.470122068024983,5.93495687711121,4.896984702179115
4.534991616012438,4.22140444036934,5.597089108143079,4.624502572086183
4.284995299282158,3.9861373974699204,5.277611362681258,4.366668195013817
4.048297027770708,3.7636014409853082,4.975537683488973,4.1227000163439005
3.8241978430617296,3.5531154038507244,4.689934683047402,3.8918580736508557
3.612035369972725,3.3540344113638305,4.419918746444882,3.6734417854193633
3.411181904754107,3.165747950656308,4.183463722755996,3.4667878572828204
3.2210426031383905,2.988089950638848,3.999720043341974,3.2712682995378084
3.0410537630258117,2.8238725510802456,3.823622912808504,3.0862885500215493
2.870681196864737,2.6683969266067233,3.6548582399665825,2.9112856967535565
2.7094186890433254,2.5212032976751906,3.4931247844007443,2.745726795040171
2.573278524554738,2.4055772047027175,3.338133631370212,2.5891072740223313
2.4621052914363006,2.295171555842563,3.189607688158575,2.440949427913679
2.3555415308104855,2.189673995494835,3.047281200995912,2.300800987428626
2.2533981190461776,2.0888681638053486,2.910899291712987,2.1686208694177576
2.155493667193201,1.9925472128985886,2.7802175133215408,2.047266824056951
2.061654204978222,1.900513389084451,2.655001423747601,1.946735616772176
1.9717128777080217,1.812577633410155,2.5350261769763174,1.8627621771113048
1.885509655552865,1.7285591997518217,2.4200761308971503,1.7822716386742987
1.8028910547042591,1.6482852896756037,2.309944471167254,1.70512105388708
1.7237098699220545,1.57159070333205,2.2514870230266992,1.6311733223416762
1.6478249180056528,1.4983175056797324,2.2053782372172197,1.5602969518884058
1.5753960313280968,1.4283147073650697,2.1603802880793364,1.49338172253295
1.5068693456575553,1.361437959614839,2.116460538956661,1.4345285463066297
1.441216551062277,1.297549262526115,2.0735874974577264,1.3787026102126274
1.3783186686321824,1.2365166861654107,2.031730770128053,1.3257450562133344
1.318061612197884,1.1782141039145977,1.9908610190543727,1.2755054199249873
1.260335987837602,1.1225209375258984,1.9509499203149872,1.227841185828084
1.2050369015852571,1.0704532293501534,1.9119701241941727,1.182617366079055
1.15206377500454,1.0219531128952086,1.8738952170823018,1.1397061016700973
1.101320168307455,0.975612284118485,1.8366996849869333,1.0989862847506071
1.0527136107089679,0.9313352813400703,1.8003588785835323,1.0603432009866753
1.0079336228250986,0.889030848314546,1.7648489797377402,1.023668190894776
0.980469656887692,0.8524434348383239,1.7301469694342102,0.9888583291422924
0.9589831287973584,0.829548345519485,1.6962305970499905,0.9558161208610085
0.9395515908849068,0.8074060038146198,1.6630783509132478,0.9244492140703628
0.9205817823536773,0.7859863622203156,1.6306694300908224,0.8946701273552292
0.9020602993778535,0.7652607483961305,1.5989837173506607,0.8663959919884064
0.8839742044102112,0.7452017972599332,1.5680017532476251,0.8395483077310015
0.8663110077937773,0.7262463339186893,1.537704711283508,0.8140527115846258
0.8490586501550392,0.710916801029702,1.5080743740942983,0.789838758807871
0.8322054855439852,0.6959623560566586,1.4790931106198777,0.7668397155460488
0.815740265287859,0.6813716931312885,1.4507438542133364,0.7475755650793054
0.7996521225270083,0.6671339252848818,1.423010081649041,0.732725119723554
0.7839305574026657,0.6532385664379329,1.3958757929904069,0.7182160881302897
0.7685654228678556,0.6396755142338564,1.3693254922801086,0.7040389449935024
0.7535469110939472,0.6264350336753783,1.3433441690171146,0.6901844856011501
0.7388655404466139,0.6135077415242703,1.3179172803865409,0.6766438134471677
0.7245121430061525,0.6008845914270902,1.2930307342098388,0.6634083283645067
0.7104778526082548,0.5885568597314458,1.2686708725842937,0.6504697151561731
0.6967540933823984,0.5765161319590941,1.2448244561821789,0.6378199327022995
0.6833325687660767,0.564754289903868,1.2214786491812628,0.6254512035222727
0.6702052509740424,0.553263499324024,1.1986210047995958,0.6133560037718901
0.6573643709027109,0.5420361982001337,1.1762394514087458,0.6015270536564459
0.6448024084507441,0.5310650855310736,1.154322279200763,0.589957308241492
0.6325120832377004,0.5203431106420502,1.1328581273852825,0.5786399486438649
0.6204863457034461,0.5098634629798914,1.1118359718942088,0.5675683735863434
0.6087183685718116,0.4996195623720652,1.0912451135724226,0.5567361913000667
0.5972015386627026,0.48960504972707475,1.071075166833911,0.5461372117595492
0.5859294490375988,0.47981377815497295,1.0513160487636268,0.5357654392358197
0.5748958914640411,0.4702398044878102,1.031957968646263,0.5256150651538631
0.5640948491853514,0.46087738118082366,1.0129914179039434,0.5156804612411598
0.5535204899824511,0.45172094857613154,0.9944071604256353,0.5059561729547245
0.5431671595152208,0.44276512751160346,0.9761962232718367,0.4964369131745924
0.5330293749314152,0.4340047122584272,0.958349887738824,0.4871175561522659
0.5231018187316702,0.42543466377171657,0.940859680767422,0.47799313170312735
0.5133793328796581,0.4170501032392727,0.9237173666819268,0.4690588196323273
0.5038569131469286,0.4088463059143538,0.9069149392454389,0.4603099443841279
0.4945297036824363,0.4008186952189897,0.8904446140184563,0.4517419699051195
0.4853929917972054,0.3929628371050645,0.8742988210081649,0.4433504947121659
0.4764422029549973,0.38527443466099764,0.8584701975963961,0.4351312471563318
0.46767289596025374,0.3777493229524621,0.8429515817347524,0.4270800808744456
0.4590807583349793,0.3703834640861495,0.827736005395905,0.4191929704203097
0.45066160187658266,0.363172942486117,0.8128166882705284,0.41146600706793357
0.44241135838905765,0.35611396037278187,0.7981870316998166,0.4051361562967643
0.43432607558021985,0.3492028334350955,0.7838406128339338,0.40076868956660866
0.42640191311802544,0.3424359866869142,0.7697711790071957,0.39659419879166496
0.41863513883931885,0.33580995049899165,0.7559726423211475,0.39260304101339155
0.41102212510463154,0.3293213567984754,0.7424390744271075,0.38878607273748955
0.4035593452929505,0.3229669354281426,0.7291647015000939,0.38513462370157897
0.3962433704306243,0.31674351065801953,0.7161438993964038,0.38164047202901014
0.3890708659488411,0.31064799784237407,0.7033711889874388,0.3782958206953633
0.3820385885643499,0.3046774002154029,0.6908412316627044,0.37509327523807756
0.37514338327832886,0.29882880581927507,0.6785488249951879,0.3720258226433536
0.36838218048852767,0.2930993845584846,0.6664888985626274,0.3690868113479561
0.36175199321001994,0.2874863853747641,0.6546565099184578,0.3662699322968593
0.35524991440010656,0.28198713353708693,0.643046840706474,0.36356920100080914
0.3488731143831008,0.27659902804154823,0.6316551929135188,0.36097894054084395
0.34261883837091256,0.27131953911616435,0.6204769852547258,0.35849376546962086
0.33648440407552527,0.2661462058258699,0.6095077496860963,0.35610856656206014
0.33046719940962455,0.2610766337732151,0.5987431280394018,0.35381849637033835
0.32456468027180363,0.2561084928904843,0.5881788687746063,0.35161895554064093
0.318774368412917,0.2512395153191559,0.5778108238452222,0.34950557985135133
0.31309384938030893,0.2464674933728239,0.5679504822200181,0.34747422793448574
0.3075207705367754,0.24179027757987967,0.5587288813526934,0.34552096964421275
0.30205283915125963,0.23720577480243218,0.5496714722089657,0.3436420750382117
0.29668782055840326,0.23271194642811152,0.5407748746614667,0.3418340039394403
0.2914235363842018,0.2283068066315551,0.5320357980136188,0.34009339604760364
0.28625786283512816,0.2239884207025328,0.5234510378246917,0.33841706157124124
0.2811887290482013,0.21975490343780538,0.5150174728740233,0.33680197235289294
0.2762141154995807,0.2156044175939492,0.5067320622576676,0.3352452534612669
0.27133205246937525,0.21153517239851102,0.49859184261103495,0.3337441752257075
0.26654061856044703,0.2075454221169775,0.4905939254514331,0.3322961456895813
0.2618379392690872,0.20363346467316343,0.48273549463472665,0.33089870346042943
0.2572221856055309,0.19979764032073147,0.47501380392061443,0.3295495109359108
0.25269157276236076,0.1960363303636686,0.46742617464130864,0.3282463478856797
0.24824435882893292,0.192347955923637,0.4599699934686672,0.32698710537038056
0.24387884355003697,0.18873097675221798,0.4526427102750581,0.32576977997995216
0.23959336712707463,0.18518389008616346,0.44544183608351173,0.3245924683743677
0.23538630906011512,0.18170522954384302,0.4383649411028927,0.32345336211084014
0.23125608702925274,0.17829356406117433,0.43140965284407873,0.3223507427423582
0.22720115581375752,0.17494749686538916,0.42457365431329963,0.32128297717323
0.223220006247572,0.17166566448507128,0.4178546822790201,0.32024851325806225
0.21931116420976873,0.16844673579497024,0.41125052560889785,0.31924587563132745
0.2154731896486374,0.16528941109416215,0.40572017313814257,0.31827366175534777
0.21170467563812811,0.16219242121619634,0.40234634165109884,0.3173305381751718
0.20800424746542795,0.1591545266699265,0.3990310816075773,0.31641523696942836
0.204370561748499,0.15617451680978292,0.39577258571940477,0.31552655238682137
0.20080230558245304,0.15325120903429965,0.39256911990190546,0.314663337658477
0.19729819571368523,0.1503834480117627,0.38941902007936346,0.31382450197686884
0.1938569777407322,0.1475701049318979,0.38632068913167106,0.3130090076325433
0.19047742534086207,0.1448100767825615,0.3832725939759234,0.3122158673003286
0.18715833952144437,0.14210228565044605,0.38027326277700446,0.31144414146715044
0.18389854789518673,0.13944567804485788,0.37732128228146133,0.3106929359939975
0.18069690397836105,0.13683922424365988,0.37441529526922435,0.30996139980496923
0.17755228651117844,0.13428191766051947,0.37155399811796586,0.30924872269671766
0.17446359879950485,0.13177277423263414,0.36873613847512066,0.3085541332619467
0.17142976807714266,0.12931083182814526,0.36596051303280874,0.3078768969209643
0.16844974488793388,0.1268951496724859,0.3632259654011156,0.3072163140556066
0.16552250248697042,0.12452480779293937,0.36053138407538055,0.30657171824014956
0.16264703626022575,0.1221989064807181,0.35787570049333817,0.30594247456410484
0.1598223631619485,0.11991656576990126,0.3552578871781391,0.3053279780420781
0.15717386883162154,0.11767692493259854,0.3526769559634555,0.3047276521061085
0.1546577543122342,0.11547914198973233,0.35013195629703864,0.30414094717616036
0.15218379104462004,0.11332239323686286,0.3476219736192585,0.3035673393046611
0.14975122442341202,0.11120587278449531,0.3451461278133132,0.3030063288912023
0.14735931556759682,0.10912879211234147,0.3427035717239313,0.3024574394637176
0.14500734088949319,0.10709037963702381,0.34029348974154083,0.30192021652265333
0.1426945916797513,0.1050898802927365,0.3379150964490083,0.3013942264448284
0.1404203737076474,0.10312655512439164,0.3355676353281736,0.3008790554438537
0.13818400683598334,0.10119968089280765,0.3332503775235425,0.30037430858415004
0.1359848246499343,0.09930854969150635,0.33096262066059734,0.29987960884575265
0.13382217409922167,0.09745246857470843,0.3287036877163152,0.2993945962372499
0.1316954151530169,0.09563075919613248,0.32647292593957666,0.29891892695433087
0.1296039204670132,0.09384275745821821,0.3242697058192594,0.2984522725815614
0.12754707506212803,0.09208781317141138,0.32209342009790176,0.29799431933512466
0.1258968458866958,0.09060049146040433,0.31994348282891827,0.29754476734438673
0.12478440047280503,0.0891671425546563,0.31781932847544203,0.2971033299702606
0.12368898830206274,0.0877583334919444,0.31572041104893933,0.2966697331584437
0.12261019781837476,0.0863735780912438,0.3136462032858456,0.2962437148257133
0.12154763150353542,0.08501240182764913,0.3115961958605298,0.29582502427755186
0.12050090531107066,0.08367434148970909,0.3095698966329785,0.2954134216554717
0.11946964812432592,0.08235894484870648,0.30756682992966344,0.2950086774124905
0.11845350123774137,0.08106577033941209,0.3055865358561154,0.2946105718152912
0.11745211786030246,0.07979438675187189,0.3036285696398049,0.2942188944716783
0.11646516264020007,0.07854437293379551,0.30169250100198064,0.2938334438820151
0.11549231120977488,0.07731531750313747,0.2997779135571821,0.29345402701339446
0.11453324974986243,0.07610681857047885,0.29788440423920126,0.29308045889536194
0.11358767457269348,0.07491848347083058,0.29601158275231576,0.2927125622360751
0.11265529172254185,0.07374992850449857,0.2941590710466757,0.29235016705783307
0.11173581659334639,0.07260077868666337,0.2923265028167683,0.29199311035097897
0.11082897356256899,0.07147066750534281,0.2905135230219402,0.29164123574521705
0.10993449564058133,0.07035923668741739,0.28871978742799453,0.29129439319744904
0.10905212413490534,0.06926613597241443,0.28694496216892973,0.2909524386952676
0.10818160832866142,0.06819102289375817,0.2851887233279229,0.29061523397530636
0.1073227051726065,0.06713356256720238,0.28345075653670526,0.2902826462556694
0.10647517899017159,0.06609342748617753,0.28173075659251245,0.28995454798172327
0.10563880119493396,0.06507029732379516,0.2800284270918272,0.28963081658455353
0.10481335001998404,0.06406385874125653,0.2783434800801705,0.28931133425144046
0.10399861025867088,0.06307380520243344,0.2766756357172271,0.2889959877077305
0.10319437301623191,0.062099836794387464,0.275024621956623,0.288684668009517
0.10240043547183553,0.0611416600536116,0.2733901742397056,0.28837727034658095
0.10161660065058487,0.06019898779778199,0.2717720352027022,0.2880736938550553
0.10084267720505088,0.05927153896281906,0.27016995439666425,0.28777384143932344
0.10007847920592192,0.05835903844506257,0.26858368801962595,0.2874776196026708
0.09932382594137576,0.05746121694837619,0.2670129986604377,0.2871849382862491
0.0985785417247958,0.05657781083600144,0.26545765505375085,0.2868957107159193
0.09784245571047104,0.056247071720933906,0.26391743184566296,0.28660985325658084
0.09711540171693442,0.05607946078589843,0.2623921093695445,0.2863272852735958
0.09639721805760987,0.05591048488784067,0.2608814734315972,0.28604792900095305
0.09568774737845193,0.055740270577830486,0.25938531510571017,0.28577170941582497
0.09498683650227682,0.05556893846096744,0.25790343053720144,0.2854985541191957
0.09429433627949563,0.05539660344907438,0.25643562075504467,0.2852283932222479
0.0936101014449742,0.055223375002932396,0.25498169149221206,0.2849611592382204
0.09293399048075565,0.05504935736449468,0.2535414530137641,0.28469678697945583
0.09226586548439308,0.054874649779486084,0.25211471995234613,0.28443521345937817
0.09160559204265101,0.054699346710780805,0.2507013111507599,0.28417637779915184
0.09095303911034519,0.0545235380429423,0.2493010495112984,0.28392022113878157
0.09030807889409936,0.054347309278282685,0.24791376185153768,0.2836666865524356
0.08967058674080869,0.05417074172479319,0.24653927876630388,0.28341571896777407
0.08904044103060715,0.0539939126762754,0.24517743449553797,0.2831672650890859
0.08841752307414674,0.053816895584999136,0.24382806679779412,0.2829212733240402
0.08780171701400294,0.05363976022718686,0.24249101682912566,0.28267769371387264
0.08719290973003066,0.05346257286162748,0.24116612902711432,0.2824364778668342
0.08659099074850124,0.053285396381693495,0.2398532509998168,0.2821975788947407
0.08599585215485939,0.05310829046103516,0.238552233419407,0.2819609513524676
0.08540738850994528,0.05293131169321785,0.23726292992031062,0.28172655118024337
0.08482549676953438,0.05275451372554074,0.23598519700162401,0.2814943356486039
0.08425007620705355,0.05257794738728272,0.23471889393363532,0.2812642633058746
0.08368102833933816,0.05240166081260478,0.23346388266825824,0.2810362939280562
0.08311825685530139,0.05222569955832568,0.2322200277532105,0.2808103884709952
0.08256166754739161,0.05205010671678156,0.23098719624976494,0.28067154860839594
0.08201116824571994,0.05187492302397656,0.22976525765392042,0.2806080051651162
0.08146666875474487,0.051700186963213324,0.22855408382083353,0.2805422651311852
0.08092808079240549,0.0515259348643875,0.2273535488923739,0.2804743895043307
0.08039531793160026,0.051352200999134845,0.22616352922765803,0.2804044377663033
0.07986829554391212,0.05117901767198907,0.22498390333643248,0.28033246792500066
0.0793469307454851,0.051006415307723096,0.22381455181517995,0.28025853655516897
0.07883114234496258,0.0508344225350279,0.22265535728582697,0.2801826988377394
0.07832085079339943,0.05066306626668149,0.2215062043369358,0.2801050085978529
0.07781597813606647,0.0504923717763488,0.22036697946727513,0.28002551834162936
0.07731644796606696,0.050322362772156626,0.2192375710316592,0.2799442792917276
0.07682218537968963,0.05015306146717302,0.2181178691889576,0.27986134142175034
0.07633311693342615,0.049984488646919734,0.21700776585217896,0.2797767534895317
0.07584917060258273,0.04981666373404159,0.21590715464053667,0.27969056306936246
0.07537027574142038,0.049649604850245166,0.21481593083341077,0.279602816583183
0.07489636304475972,0.049483328875627786,0.2137339913261156,0.2795135593307909
0.0744273645109898,0.04931785150549661,0.2126612345874055,0.27942283551910296
0.0739632134064227,0.04915318730478657,0.21159756061862778,0.2793306882905018
0.07350384423093834,0.04898934976017255,0.21054287091446233,0.27923715975030705
0.07304919268486637,0.048826351329974926,0.20949706842516957,0.2791422909934007
0.07259919563705386,0.04866420349194889,0.2084600575202853,0.27904612213004265
0.07215379109407066,0.04850291678903984,0.20743174395369635,0.2789486923109037
0.07171291817050507,0.04834250087319991,0.20641203483003623,0.2788500397513447
0.07127651706030572,0.04818296454733162,0.20540083857234714,0.27875020175497167
0.07084452900912697,0.0480243158054513,0.2043980648909427,0.2786492147364935
0.07041689628763659,0.04786656187113281,0.20340362475343277,0.27854711424390444
0.06999356216574687,0.04770970923431228,0.20241743035584614,0.27844393498002173
0.06957447088773178,0.04755376368651609,0.2014393950948128,0.27833971082339215
0.06915956764819431,0.04739873035458142,0.20046943354075286,0.27823447484860175
0.06874879856884958,0.0472446137329281,0.19950746141203468,0.2781282593459986
0.06834211067609114,0.04709141771444636,0.19855339555005203,0.27802109584086
0.06793945187930855,0.046939145620052414,0.19760715389518801,0.27791301511200994
0.06754077094992736,0.046787800226973264,0.19666865546362344,0.2778040472099217
0.06714601750114102,0.04663738379580873,0.19573782032495202,0.27769422147431244
0.06675514196830862,0.04648789809642584,0.1948145695805712,0.2775835665512453
0.06636809558999124,0.046339344432727136,0.19389882534281178,0.27747211040976894
0.06598483038960229,0.04619172366635138,0.19299051071477558,0.2773598803580949
0.06560529915764687,0.0460450362393372,0.1920895497708519,0.27724690305933786
0.06522945543452793,0.045899282195805524,0.1911958675378811,0.27713320454682744
0.06485725349389632,0.04575446120269211,0.19030938997694102,0.2770188102390141
0.06448864832652373,0.045610572569577124,0.1894300439657266,0.27690374495396897
0.06412359562467879,0.045467615267644534,0.1885577572814976,0.2767880329235045
0.06376205176698554,0.04532558794780872,0.18769245858457362,0.2766716978069197
0.06340397380374727,0.045184488958046054,0.18683407740234848,0.2765547627043845
0.06304931944271638,0.04504431635996031,0.18598254411380588,0.27643725016997556
0.0626980470352943,0.044905067944617794,0.18513778993451413,0.276319182224371
0.062350115563144376,0.04476674124767943,0.18429974690207707,0.27620058036722117
0.0620054846252025,0.04462933356386278,0.18346834786202648,0.2760814655891969
0.06166411442507003,0.04449284196075998,0.18264352645413506,0.2759618583837339
0.06132596575877497,0.04435726329203826,0.18182521709913257,0.2758417787584758
0.0609910000028874,0.044222594210048594,0.1810133549858095,0.275721246246429
0.06065917910297608,0.04408883117787332,0.18020787605849042,0.2756002799168361
