jointMR1,jointMR2,jointMR3,force
6.307197930895141,5.446202277677901,7.8360105856681574,6.143149725032469
5.955178961141197,5.1444731802459405,7.39209991994572,5.80118119846833
5.622192130529682,4.859013240225709,6.972290350192482,5.477696747636113
5.307219704936871,4.588953182847608,6.575291368108047,5.171707826220898
5.009298152600336,4.333470018313071,6.199881224174435,4.882278542866467
4.727515261916453,4.091784580731285,5.844903270947151,4.608522860993361
4.461007412402828,3.863159197840533,5.50926250067654,4.349601947431892
4.2089569906884154,3.646895484565899,5.191922266935041,4.104721661963698
3.970589943826247,3.442332253833996,4.891901180474464,3.873130180285327
3.7451734626331,3.248843538415022,4.608270170056613,3.654115743305115
3.532013788147917,3.0658367178933608,4.340149699492412,3.4470045260611726
3.330454134667772,2.892750745181247,4.086707132590212,3.251158619904888
3.1398727231677266,2.738146884499938,3.8471542381548995,3.0659741219319283
2.959680919239843,2.614997541396566,3.6207448275968295,2.890879325962489
2.789321469998227,2.497317744658698,3.4067725181049147,2.767776609752779
2.62826683469199,2.384866295140022,3.204568614712492,2.6584261611196536
2.476017604047262,2.2774126084145534,3.05794675657856,2.553924685590669
2.3321010036239898,2.174736247818878,2.9499111719950326,2.454058250951783
2.196069476723589,2.076626478037891,2.8454983683330886,2.3586223465250336
2.067499342620722,1.9828818383301132,2.7445881750699583,2.267421468451882
1.9459895261170028,1.8933097345284722,2.6470643921131414,2.180268723229709
1.8311603546270168,1.8077260489903995,2.552814658813533,2.096985448698068
1.7226524192083932,1.7259547677075293,2.4714030034756647,2.0174008517066717
1.66355868539586,1.6478276238199587,2.42189925213306,1.9413516617308906
1.6074307749295889,1.5731837568133034,2.3733836345309154,1.8686817997328649
1.5531727109893954,1.5018693867085253,2.325834027657815,1.7992420615972229
1.5007225342006447,1.4337375025848702,2.279228928850257,1.7328898154999117
1.4500203315376494,1.3686475648052872,2.2335474329841025,1.6694887125969153
1.4010517150757262,1.3078497612244415,2.1887692106908885,1.608908410446601
1.357639916068914,1.263449368890306,2.144874487548036,1.5510243086052484
1.3173219280763528,1.2205303047176228,2.101844024194663,1.4957172958599716
1.2916811047469914,1.179043502080087,2.059659097327175,1.442873508586853
1.2665482990657893,1.1389415145991924,2.018301481531192,1.3923840997446093
1.241912197521414,1.1001784627040927,1.977753431908621,1.344145018035712
1.2177618024238903,1.06270998195385,1.9379976674607937,1.298056796787443
1.1940864203162913,1.0264931730639135,1.8990173551906184,1.2540243521250807
1.170875650907179,0.9914865535805993,1.8607960948885953,1.21195679002826
1.148119376497884,0.9576500111491902,1.8233179045693588,1.1717672218795092
1.12580775188005,0.9249447583230764,1.7865672065271196,1.1333725881312111
1.1039311946801618,0.8933332888630984,1.7505288139800095,1.096693489733664
1.0824803761289572,0.8627793354779195,1.7163571633899577,1.0616540269826666
1.061446212234789,0.8332478289578963,1.6874963614983696,1.0281816454600516
1.04081985534106,0.8047048586564692,1.6591681889218275,0.9962069887550112
1.0205926860489027,0.7771176342746272,1.6313622062879596,0.9656637576677531
1.0007563054872313,0.7504544489054586,1.604068198295972,0.9364885756101906
0.9813025279132201,0.7333512715070207,1.5772761681049028,0.9086208599309179
0.9622233736271335,0.7197510922878605,1.550976331895646,0.8820026989037247
0.9435110621862519,0.7064113703507717,1.5251591136001077,0.856578734130382
0.9251580059034408,0.6933266141209082,1.499815139791154,0.8322960481194047
0.9071568036166238,0.6804914730505784,1.4749352347272926,0.809104056812983
0.8895002347161467,0.6679007328543152,1.450510415546287,0.7869544068442951
0.8721812534176745,0.6555493109474848,1.4265318876021666,0.7658008773170146
0.8551929832688963,0.6434322520785476,1.4029910399403351,0.7455992859079712
0.8385287118789116,0.6315447241455681,1.3798794409056996,0.7263073991026946
0.822181885859741,0.619882014188071,1.3571888338789777,0.7092555381784033
0.8061461059699339,0.6084395245457856,1.3349111331365358,0.6957034059231
0.790415122450767,0.5972127691762605,1.313038419829319,0.6824082035177885
0.7749828305459947,0.5861973701237371,1.291562938076612,0.6693647474222272
0.7598432661965874,0.5753890541320579,1.270477091170565,0.6565679762111976
0.7449906019023076,0.5647836493947596,1.2497734378875762,0.6440129468499494
0.7304191427424039,0.5543770824358465,1.2294446889027992,0.6316948311178804
0.7161233225480788,0.5441653751150706,1.209483703304184,0.6196089121734624
0.7020977002197583,0.5341446417518536,1.1898834852026297,0.6077505812537828
0.6883369561825485,0.5243110863622986,1.1706371804349471,0.5961153345024103
0.6748358889735862,0.5146610000039997,1.1517380733564861,0.5846987699196088
0.661589411955309,0.5051907582236435,1.1331795837203877,0.5734965844292255
0.6485925501489734,0.4958968186026383,1.114955263640573,0.5625045710568769
0.6358404371830223,0.48677571839624917,1.0970587946356685,0.5517186162142997
0.6233283123511811,0.47782407226194806,1.0794839847512003,0.5411346970850329
0.6110515177754079,0.4690385700728959,1.0622247657574961,0.5307488791067986
0.5990054956690716,0.4604159748126944,1.0452751904208155,0.5205573135462112
0.5871857856959523,0.45195312054771203,1.0286294298453549,0.5105562351616497
0.5755880224208831,0.44364691047349775,1.0122817708838459,0.5007419599503364
0.5646538198509518,0.43549431503196107,0.9962266136145631,0.49111088297586675
0.555231736247819,0.42749237009615576,0.9804584688826429,0.48165947627262007
0.5459797780271071,0.41963817521967056,0.9649719559036898,0.4723842868236559
0.536894740317885,0.4119288919477743,0.9497617999277337,0.4632819346088691
0.5279734820249751,0.40436174218760296,0.9348228299616667,0.45434911072034095
0.5192129244292072,0.39693400663481354,0.9201499765483628,0.4474054498324487
0.5106100498238509,0.3896430232542481,0.9057382696007564,0.4416678104209543
0.5021619001860673,0.38248618581228694,0.8915828362892092,0.4361956540653542
0.4938655758822692,0.37546094245866085,0.8776788989805615,0.4309770623998705
0.4857182344063221,0.3685647943556251,0.8640217732273365,0.4260006447408225
0.47771708914955546,0.3617952943524801,0.850606865805599,0.4212555148274203
0.46985940820159816,0.355150045703536,0.8374296728000394,0.41673126858650683
0.46214251318108746,0.3486267008276957,0.8244857777349102,0.41241796287618204
0.4545637780953352,0.34222296010793857,0.8117708497494692,0.40830609516522837
0.4471206282280734,0.3359365707290451,0.7992806418166654,0.4043865841071475
0.4398105390544298,0.3297653255520017,0.7870109890038144,0.4006507509694398
0.4326310351823195,0.3237070620235975,0.7749578067740778,0.397090301880481
0.4255796893194659,0.31775966111977677,0.7631170893275925,0.3936973108580146
0.4186541212652942,0.31192104632140644,0.751484907981141,0.39046420358485945
0.41185199692696906,0.3061891826211585,0.7400574095852823,0.3873837418989453
0.4051710273588721,0.3005620755602843,0.7288308149779177,0.38444900896623685
0.39860896782484356,0.29503777029409833,0.7178014174732792,0.3816533951064921
0.39216361688253276,0.28961435068506597,0.7069655813853826,0.3789905842431224
0.38583281548922876,0.28428993842241784,0.6963197405850081,0.37949127736110644
0.3796144461285626,0.2790626921672816,0.6858603970892996,0.3809264785597938
0.37350643195749395,0.273930806722359,0.6755841196831147,0.3822567015574758
0.36750673597301675,0.26889251222521654,0.6654875425712881,0.3834871181924082
0.3616133601980365,0.2639460733643238,0.6555673640609685,0.3846226642718683
0.35582434488589126,0.2590897886169706,0.6458203452732687,0.3856680500955495
0.35013776774300603,0.25432198950828594,0.6362433088834414,0.3866277705135367
0.3445517431691887,0.24964103989056602,0.626833137888841,0.387506114539386
0.33906442151508975,0.2450453352421939,0.6175867744039794,0.38830717453792596
0.33367398835636697,0.24053330198544015,0.6085012184819447,0.38903485500654134
0.32837866378410807,0.23610339682247589,0.5995735269615421,0.38969288096786403
0.3231767017110831,0.23175410608895958,0.5908008123394866,0.39028480599101256
0.3180663891934076,0.22748394512458175,0.582180241667021,0.3908140198577642
0.31304604576721545,0.22329145765998365,0.5737090354703571,0.3912837558893266
0.30811402279995076,0.21917521521948707,0.5653844666943288,0.391697097948672
0.30326870285590046,0.21513381653910085,0.5572038596686963,0.39205698713276027
0.2985084990756036,0.21116588699928945,0.5491645890965393,0.39236622816832134
0.2938318545687816,0.20727007807200887,0.5412640790641914,0.39262749552428367
0.2892372418204476,0.20344506678154667,0.5334998020722099,0.39284333925335146
0.28472316210986237,0.19968955517870635,0.5258692780868375,0.39301619057468107
0.2802881449420143,0.19600226982790853,0.5183700736115009,0.3931483672090811
0.2759307474913114,0.19238196130679336,0.510999800777836,0.39324207847766746
0.27164955405718283,0.18882740371792767,0.5037561164557836,0.39329943017440105
0.2674431755312959,0.18533739421223333,0.4966367213823073,0.39332242922250094
0.2633102488761043,0.18191075252377492,0.48963935930828706,0.39331298812426796
0.25924943661445143,0.17854632051555197,0.48276181616315417,0.3932729292134406
0.2552594263299586,0.17524296173596143,0.4760019192368776,0.39320398871880413
0.25133893017794173,0.17199956098560748,0.46935753637885846,0.3931078206473848
0.2474866844065997,0.16881502389414554,0.46282657521337844,0.3929860004951974
0.24370144888823234,0.16568827650686274,0.45640698237119404,0.39284002879316304
0.23998200666024738,0.1626182648807108,0.4500967427369176,0.3926713344954781
0.2363271634757267,0.15960395468951155,0.44389387871181607,0.3924812782173891
0.23273574736332536,0.1566443308380711,0.4377964494916855,0.3922711553290351
0.22920660819628652,0.15373839708494902,0.43180255035944826,0.39204219891170733
0.22573861727035832,0.15088517567363569,0.4259103119921457,0.39179558258261193
0.22233066689040692,0.14814000229731825,0.42011789978201053,0.3915324231939469
0.21898166996552562,0.14572299249128254,0.41442351317127457,0.39125378341184236
0.21569055961244227,0.143347906486495,0.4088253850004471,0.3909606741804801
0.2124562887670386,0.1410139916645672,0.4033217808697218,0.39065405707646683
0.20927782980379364,0.13872050934569433,0.3979109985132583,0.3903348465583141
0.20615417416297277,0.13646673451939037,0.3925913671860204,0.39000391211565744
0.2030843319853873,0.1342519555808019,0.3873612470629204,0.3896620803226589
0.20006733175455407,0.13207547407247336,0.3822190286499876,0.3893101367998193
0.197102219946089,0.12993660443143404,0.3771631322072988,0.3889488280882625
0.194188060684174,0.1278346737414877,0.37219200718341794,0.38857886344035564
0.19132393540493853,0.12576902149058047,0.36730413166109166,0.38820091653037225
0.1885089425266042,0.12373899933313506,0.3624980118139618,0.3878156270887344
0.18574219712624215,0.1217439708572349,0.35777218137405176,0.3874236024632193
0.18302283062299837,0.1197833113565511,0.3531252011097987,0.3870254191103565
0.18034999046764427,0.11785640760690066,0.34855565831440516,0.38662162402011735
0.17772283983831724,0.11596265764733635,0.34406216630428754,0.3862127360768406
0.17514055734231168,0.11410147056566214,0.3396433639274157,0.38579924735922355
0.17260233672379496,0.11227226628827972,0.3352979150813118,0.3853816243820779
0.17010738657731683,0.11047447537426466,0.3310245082405334,0.38496030928242764
0.16765493006698728,0.10870753881358272,0.3268218559934182,0.3845357209524186
0.16524420465120374,0.10697090782935312,0.3226886945878993,0.38410825612139476
0.16287446181280704,0.10526404368406758,0.31862378348621445,0.38367829038939694
0.16054496679455052,0.1035864174896832,0.3146259049283042,0.38324617921423487
0.15825499833976994,0.10193751002149834,0.3106938635037251,0.3828122588541958
0.15600384843814394,0.10031681153573394,0.3068264857319125,0.3823768472683533
0.15379082207643616,0.09872382159073942,0.30302261965059474,0.38194024497635937
0.15161523699411675,0.0971580488717387,0.2992811344122126,0.3815027358795192
0.1494764234437574,0.09561901101904943,0.2956009198881675,0.3810645880448662
0.14737372395610282,0.09410623445969349,0.29198088628073915,0.38062605445387776
0.14530649310971952,0.09261925424232739,0.2884199637425102,0.3801873737174053
0.14327409730512558,0.09115761387542523,0.28491710200316045,0.37974877075831914
0.14127591454331165,0.08972086516863961,0.28147127000345384,0.3793104574633014
0.13931133420855704,0.08830856807727619,0.2780814555362918,0.37887263330515675
0.13737975685545767,0.0869202905498169,0.2747466648946859,0.3784354859369583
0.1354805940000745,0.08555560837842338,0.27146592252649393,0.3779991917592711
0.13361326791512024,0.08421410505236146,0.26823827069581063,0.3775639164616602
0.13177721142910026,0.08289537161428387,0.2650627691508427,0.3771298155396212
0.12997186772932723,0.08159900651931176,0.26193849479816667,0.37669703478803207
0.12819669016873017,0.08032461549685568,0.25886454138322734,0.3762657107721663
0.12645114207638083,0.0790718114151199,0.2558400191769554,0.3758359712772733
0.12473469657166084,0.0778402141482342,0.2528640546683685,0.37540793573767395
0.1230468363819974,0.07662945044595668,0.24993579026306523,0.3749817156462901
0.12138705366409333,0.0754391538058993,0.24705438398745483,0.37455741494547734
0.119754849828582,0.07426896434821709,0.24421900919864137,0.37413513039999724
0.11814973536803836,0.07311852869271693,0.24142885429983418,0.3737149519529208
0.11657122968827688,0.07198749983833233,0.23868312246116918,0.3732969630652333
0.1150188609428722,0.07087553704491625,0.2359810313458548,0.37288124103986187
0.11349216587083696,0.06978230571730601,0.23332181284150644,0.3724678573308232
0.11199068963739345,0.06870747729161283,0.23070471279659865,0.3720568778381569
0.1105139856777772,0.06765072912369005,0.22812899076190218,0.3716483631892826
0.1090616155440135,0.06661174437973852,0.22559391973683907,0.3712423690073823
0.10763314875460495,0.0655902119290013,0.22309878592063437,0.3708389461673939
0.10622816264707524,0.0645858262385112,0.22064288846817437,0.37043814104016926
0.10484624223330935,0.06359828726984387,0.2182255392504957,0.3700399957253242
0.10348698005763796,0.0626273003778409,0.21584606261978645,0.36964454827329285
0.102149976057609,0.06167257621125902,0.21350379517883855,0.3692518328970642
0.10083483742739552,0.060733830615312095,0.21119808555484654,0.36886188017406896
0.09954117848378535,0.05981078453606112,0.20892829417746772,0.36847471723865466
0.09826862053470592,0.05890316392662229,0.20669379306107438,0.36809036796557837
0.09701679175022798,0.05801069965515118,0.20449396559110067,0.3677088531449103
0.09578532703600606,0.0571331274145723,0.20232820631441228,0.3673301906487455
0.09457386790910638,0.05627018763401462,0.20019592073362213,0.36695439559008536
0.0933820623761688,0.055421625391923995,0.19809652510526643,0.3665814804742441
0.092209564813869,0.05458719033081569,0.19602944624178065,0.3662114553431166
0.09105603585162636,0.05376663657363531,0.19399412131718408,0.3658443279126302
0.0899211422565162,0.0529597226416986,0.19198999767641567,0.365480103703686
0.08880455682034721,0.052166211374176014,0.19001653264824436,0.3651187861668863
0.08770595824885691,0.05138586984909263,0.18807319336168238,0.3647603768013281
0.08662503105298658,0.05061846930581518,0.1861594565658451,0.36440487526773035
0.08556146544219612,0.04986378506899378,0.18427480845317112,0.36405227949614904
0.08451495721977575,0.049121596473934465,0.18241874448595863,0.3637025857885353
0.08348520768012113,0.048391686793368555,0.18059076922613948,0.3633557889163539
0.08247192350792937,0.04767384316559778,0.178790396168244,0.3630118822135038
0.08165118108577185,0.04696785652398336,0.17701714757546894,0.36267085766474105
0.08138616317883102,0.04627352152775596,0.17527055431882155,0.36233270598981515
0.08112480137588163,0.045590636494119624,0.17355015571925714,0.3619974167235115
0.08086697993410691,0.04491900333162349,0.17185549939276656,0.36166497829178845
0.08061258715821182,0.0442584274747794,0.17018614109833474,0.3613353780841837
0.08036151526182461,0.043608717819899084,0.1685416445887593,0.36100860252266576
0.08011366023355401,0.042969686662127055,0.16692158146422154,0.3606846371270849
0.07986892170754722,0.04234114963364852,0.16532553102859704,0.36036346657738827
0.07962720283839947,0.041722925643046055,0.16375308014843393,0.3600450747727406
0.07938841018027037,0.04111483681578734,0.16220382311455617,0.35972944488769487
0.07915245357006667,0.04051670843581648,0.16067736150623935,0.35941655942555006
0.07891924601455685,0.039928368888235116,0.1591733040579053,0.3591064002690204
0.0786887035812866,0.039349649603043074,0.15769126652830034,0.35879894872834717
0.07846074529316804,0.038780384999928225,0.15623087157209348,0.3584941855869632
0.07823529302662155,0.03822041243407595,0.15479174861386547,0.3581920911448284
0.07801227141315092,0.03766957214298791,0.15337353372442442,0.357892645259542
0.0777916077442383,0.03712770719428085,0.1519758694994262,0.357595827385335
0.07757323187944759,0.03659466343445747,0.15059840494023735,0.35730161661004045
0.07735707615763038,0.036070289438620035,0.14924079533700563,0.35700999169013525
0.07714307531113013,0.03555443646111847,0.14790270215389634,0.35672093108394487
0.07693116638288522,0.03504695838710728,0.14658379291645596,0.35643441298309675
0.07672128864633418,0.034547711684999066,0.14528374110105235,0.3561504153422974
0.07651338352802939,0.03405655535979604,0.14400222602636936,0.3558689159075251
0.0763073945328695,0.03357335090728106,0.1427389327469022,0.3555898922426983
0.07610326717186244,0.03309796226905595,0.1414935519484215,0.3553133217548985
0.07590094889233534,0.03263025578840559,0.1402657798453688,0.3550391817182187
0.07570038901050913,0.03217010016697777,0.13905531808015037,0.3547674492962908
0.07550153864635928,0.031717366422259446,0.13786187362428692,0.35449810156356887
0.07530435066068603,0.031271927845835074,0.13668515868138797,0.3542311155254142
0.07510877959432055,0.030833659962414134,0.13552489059191886,0.35396646813704935
0.07491478160939574,0.030402440489610577,0.13438079173972373,0.3537041363214257
0.07472231443261207,0.029978149298462237,0.13325258946026763,0.3534440969860655
0.07453133730043263,0.029560668374675053,0.13214001595057945,0.3531863270389185
0.07434181090614234,0.029149881780578396,0.13104280818084302,0.35293080340328986
0.07415369734870897,0.028745675617778993,0.12996070780762414,0.3526775030318716
0.07396696008338599,0.028347937990499866,0.12889346108869826,0.3524264029199379
0.07378156387399856,0.027956558969590622,0.12784081879943354,0.35217748011772343
0.07359747474685693,0.0275714305571976,0.1268025361507279,0.35193071174204615
0.07341465994624174,0.027192446652081453,0.12577837270844827,0.35168607498719395
0.0732330878914097,0.026819503015569263,0.12476809231434682,0.35144354713512094
0.07305272813506794,0.026452497238129036,0.12377146300844433,0.35120310556498335
0.07287355132326803,0.026091328706556977,0.1227882569528318,0.350964727762048
0.0726955291566721,0.02573589857176356,0.121818250356867,0.35072839132600575
0.07251863435314498,0.025386109717148775,0.12086122340376226,0.35049407397871746
0.07234284061162796,0.025041866727554374,0.1199169601785024,0.35026175357142053
0.0721681225772508,0.02470307585878448,0.1189852485970988,0.35003140809142474
0.07199445580764119,0.024369645007680546,0.11806588033713772,0.3498030156683233
0.07182181674039023,0.024041483682744003,0.11715865076960097,0.3495765545797388
0.07165018266163659,0.023718502975293515,0.11626335889194195,0.3493520032566332
0.07147953167573004,0.023534638099483807,0.11537980726238795,0.3491293402882025
0.07130984267593979,0.02352431556755319,0.11450780193544219,0.3489085444263732
0.07114109531617094,0.023513825457434412,0.1136471523985807,0.34868959458992865
0.07097326998365633,0.023503171115466737,0.11279767151009401,0.3484724698682753
0.07080634777258998,0.0234923558901029,0.1119591754380791,0.34825714952487585
