jointFR1,jointFR2,jointFR3,force
5.463110129314729,5.269081877404497,7.838854600773892,5.135529317077123
5.167705925478712,4.9845279371152404,7.401145755374904,4.896457752652547
4.8879202855362,4.715024761256727,6.986836390070715,4.668195488297239
4.62293399469485,4.459782618587865,6.594693984156878,4.450258215203233
4.376466069602379,4.218053091269447,6.223550585502556,4.242183260705553
4.157319251868896,3.9891269161741483,5.8722994349417315,4.043528622627051
3.9490000974678456,3.7731175277594198,5.539891766995524,3.853872046708323
3.7509751942056986,3.5848524979650427,5.22533377771787,3.6728101452005855
3.5627373868342276,3.4058981316033274,4.947232636982848,3.499957554785126
3.3838044848972015,3.235795471571869,4.6868473878169095,3.3366964350625885
3.21371803416099,3.074108158747607,4.439450842877134,3.1913149093483413
3.052042148500351,2.920421319772111,4.204401280220817,3.053389450718483
2.898362399264576,2.7743405095691056,3.9810885985488103,2.9225326170388914
2.752284759295607,2.6354907059009776,3.768932760490236,2.7983771702018396
2.6137333265755776,2.5035153534035453,3.567382312501594,2.68057502154511
2.4877316798085256,2.3780754546643688,3.375912977610062,2.5687962323280376
2.368334913235795,2.258848706029697,3.194290313205058,2.4627280663900515
2.254383511211352,2.1455286759390417,3.0248115092460774,2.362074092267388
2.145632851537999,2.0378240236946867,2.863785245326286,2.266553332185852
2.04184924940107,1.935457756676417,2.729060722463182,2.175899455482298
1.9428094690891529,1.8381665241096519,2.6704695969259484,2.089860014135292
1.848300257502232,1.745699945588262,2.6133940790596393,2.008195718206511
1.7581178984752284,1.6578199726418648,2.5577845266389088,1.9306797491091803
1.6722497464040436,1.5743002817215404,2.503593292581556,1.857097108728664
1.5908045163065514,1.4949256970579246,2.4507746339525167,1.7872440025234222
1.513100706540266,1.421750331805329,2.3992846253887463,1.720927254832248
1.4389693293842485,1.353480172135112,2.3490810767239223,1.6579637547063508
1.36824897955893,1.2883256056270314,2.300123454603105,1.5981799306725883
1.3007854950090787,1.226146623807362,2.252372807888114,1.5414112529174218
1.2364316328408471,1.166809479092682,2.205791696664466,1.4875017614599466
1.1750467597363787,1.110186405266902,2.1603441246702992,1.4363036189571534
1.126143840900227,1.0561553504311736,2.1159954749767933,1.387676686855379
1.0799202409047304,1.004599721870196,2.072712448758205,1.3414881236690699
1.0357503393804135,0.9554081423033021,2.030463006997845,1.2976120042315915
0.9935415630428883,0.9084742170123772,1.9892163149840676,1.2559289588231566
0.9532055073020558,0.8636963113613665,1.948942689457725,1.2163258311380951
0.9146577491478335,0.8209773382437415,1.9096135482795398,1.1786953541078617
0.8833326326774487,0.7802245550149998,1.8712013624924748,1.1429358426475569
0.8616838652054343,0.7417861779277921,1.8336796106604976,1.1089509024423772
0.8406675300652048,0.715090471877166,1.7970227353711055,1.076649153936556
0.8202616999587772,0.6974660847896093,1.7612061017946636,1.0459439707310763
0.8004453038436694,0.6803623080998671,1.7262059581989926,1.0167532316378798
0.7811980911844063,0.6637609886712454,1.6919993983227573,0.9889990856775598
0.7625005977478108,0.6476446828630926,1.6585643255160636,0.962607729344766
0.7443341128743084,0.6319966269352302,1.6258794185612828,0.937509195500817
0.7266806481604824,0.616800708729156,1.5939240990914882,0.9136371532864718
0.7095229074909589,0.6020414405700101,1.5626785005280477,0.8909287184794883
0.6928442583604688,0.5877039333357805,1.5321234384628544,0.8693242737516504
0.6766287044295219,0.5737738716425691,1.50224038241442,0.8487672983084122
0.6608608592596529,0.5602374900970415,1.4730114288906062,0.8292042064212831
0.6461347465698994,0.5470815505692943,1.4444192756941359,0.8105841943886737
0.6337617990853041,0.5342933204414841,1.4164471974102388,0.7928590954851431
0.6216608581148132,0.5218605517895112,1.389079022018807,0.7759832424819715
0.609824631250142,0.5097714614569406,1.3622991085763312,0.7599133373437645
0.5982460660963861,0.49801471198215724,1.336092325915628,0.7446083277264194
0.5869183411162264,0.48657939334145767,1.3104440323139577,0.7300292899213561
0.5758348568528229,0.4754550054724415,1.285340056082602,0.7161393179094567
0.5649892275151324,0.4646314415436293,1.2607666770333288,0.7029034182057166
0.5543752729100838,0.45409897193774257,1.2367106087793698,0.6902884101922817
0.5439870107067318,0.44384822891751435,1.2131589818306656,0.6782628316533187
0.5338186490181578,0.43387019194427606,1.1900993274451395,0.6667968492401313
0.5238645792875075,0.4241561736208725,1.1675195621996475,0.6558621736091157
0.5141193694651519,0.41469780623171654,1.1454079732460811,0.6454319789885903
0.5045777574645187,0.40548702885398974,1.1237532042197964,0.6354808269432592
0.4952346448846936,0.3974665069842059,1.102544241769183,0.6259845941171677
0.48608509098840225,0.3899833201855419,1.081770402676737,0.6169204037474212
0.4771243069244847,0.38265856426404793,1.0614213215434505,0.6082665607518061
0.4683476501844446,0.3754882125885601,1.0414869390097574,0.6000024902037205
0.45975061928311234,0.3684683643046432,1.0219574904875677,0.5921086790175637
0.45132884865389333,0.36159523970972357,1.0028234953792026,0.584566620676973
0.44307810374948475,0.3548651758155577,0.9840757467602257,0.577358762847045
0.4349942763393476,0.3482746220900805,0.9657053015043071,0.5704684577199699
0.4270733799955886,0.3418201363710031,0.9477034708293275,0.5638799149513751
0.41931154575927987,0.33549838094388545,0.9300618112449599,0.5575781570521187
0.41170501797958425,0.3293061187777064,0.9127721158829283,0.5515489771073442
0.4042501503183853,0.32324020991126473,0.895826406192082,0.5457788987012911
0.39694340191344135,0.3172976079840361,0.8792169239812808,0.5402551379327076
0.3897813336933832,0.31147535690537903,0.862936123793933,0.5349655674117234
0.3827606048381601,0.30577058765625725,0.8469766655988165,0.5298986821347292
0.37587796937882734,0.30018051521789163,0.8313314077825582,0.5250435671392324
0.36913027293082035,0.29470243562199877,0.8159934004298719,0.5203898668457504
0.3625144495551196,0.28933372311750744,0.8009558788783149,0.515927755998681
0.35602751874195426,0.28407182744885745,0.7862122575349901,0.511647912122666
0.34966658251191785,0.2789142712412093,0.771756123943216,0.5075414894153375
0.3434288226295962,0.2738586474880786,0.757581233087768,0.5036000940014623
0.33731149792501547,0.2689026171371223,0.7436815019278564,0.4998157604774113
0.3313119417184224,0.2640439067699662,0.7300510041475265,0.49618092967859995
0.32542755934410195,0.2592803063721612,0.716683965113661,0.4926884276060541
0.3196558257691212,0.25460966718951056,0.7035747570322399,0.4893314454515948
0.313994283303067,0.25002989966717865,0.6907178942939725,0.4861035206642935
0.3084405393950125,0.2455389714681379,0.6781080290008252,0.4829985190038422
0.3029922645141109,0.24113490556767875,0.6657399466653966,0.48001061752932256
0.29764719011036644,0.23681577842081608,0.6536085620754579,0.4771342884745484
0.2924031066522863,0.23257971819959739,0.64170891531636,0.4743642839637028
0.2872578617382492,0.2284249030974123,0.6340410272529104,0.4716956215234103
0.28220935827857374,0.22434955969756204,0.6268641424932537,0.4691235703496737
0.2772555527453877,0.22035196140342656,0.619827539657354,0.46664363829027483
0.27239445348752966,0.21643042692771913,0.612926701622412,0.46425155950529523
0.26762411910783124,0.21258331883839482,0.6061572979474068,0.4619432827703686
0.26294265690024166,0.2088090421589041,0.599515176576658,0.4597149603891136
0.25834822134436086,0.20510604302056828,0.5929963559169369,0.4575629376829573
0.2538390126550598,0.20147280736495382,0.5865970172713162,0.4554837430282175
0.24941327538495386,0.19790785969421726,0.5803134976137163,0.45347407841187853
0.24506929707760047,0.19440976186746622,0.5741422826888047,0.45153081047899735
0.24080540696937483,0.1909771119412787,0.5680800004226394,0.44965096204608124
0.23661997473807264,0.18760854305259517,0.5621234146300285,0.44783170405612205
0.2325114092963589,0.1843027223422707,0.5562694190052921,0.4460703479522414
0.22847815762827714,0.1810583499176574,0.5505150313836451,0.44436433844810275
0.22451870366709578,0.17787415785264332,0.5448573882610179,0.44271124667438977
0.22063156721284707,0.17474890922365055,0.5392937395606834,0.44110876368172675
0.21681530288798392,0.1716813971801568,0.5338214436355802,0.43955469428144656
0.21306849912964407,0.16867044404835713,0.5284379624956974,0.4380469512065798
0.20938977721707516,0.16571490046665788,0.5231408572504053,0.4365835495763575
0.20577779033283575,0.1628136445517256,0.5179277837560206,0.4351626016483964
0.2022312226564452,0.15996558109389697,0.5127964884593885,0.4337823118435583
0.19874878848921,0.15716964078077594,0.5077448044286148,0.432440972029262
0.19532923140901018,0.15442477944791827,0.5027706475625418,0.4311369570477638
0.19197132345387505,0.15172997735553312,0.49787201297088246,0.42986872047663466
0.18867386433323377,0.14908423849018576,0.4930469715173431,0.4286347906093195
0.18543568066576496,0.14648658989052105,0.48829366651835926,0.4274337666443051
0.1822556252428197,0.14393608099607852,0.4836103105904441,0.42626431507201484
0.17913257631643445,0.14143178301829123,0.4789951826394425,0.42512516624912344
0.1760654369109859,0.13897278833282095,0.474446624985275,0.4240151111505162
0.17305313415758902,0.13655820989239492,0.46996304061607397,0.4229329982896349
0.1700946186503645,0.1341871806593608,0.46554289056586207,0.4218777307984277
0.16718886382374978,0.13185885305720307,0.4611846914101998,0.4208482636585853
0.16433486535005246,0.1295723984402885,0.45688701287447375,0.4198436010761803
0.16153164055648359,0.1273270065811553,0.4526484755497393,0.41886279399222826
0.158778227860938,0.1251218851746671,0.44846774871126405,0.4179049377220962
0.15607368622581733,0.12295625935840254,0.4443435482351321,0.41696916971703674
0.1534170946292225,0.12082937124866172,0.44027463460846894,0.416054667441488
0.15080755155287026,0.11874047949150018,0.4362598110290703,0.4151606463601071
0.14824417448611063,0.11668885882823171,0.4322979215903944,0.41428635802882224
0.1457260994454525,0.11467379967485453,0.4283878495480402,0.413431088284482
0.14325248050902684,0.11269460771488021,0.4245285156640555,0.41259415552796863
0.14082248936543787,0.1107506035050762,0.42071887662553475,0.41177490909591025
0.13843531487647812,0.10884112209363189,0.41695792353415495,0.41097272771637344
0.13609016265320287,0.10696551265030313,0.41324468046344487,0.41018701804416885
0.1337862546448803,0.10512313810808377,0.40957820308071136,0.409417213271623
0.13152282874035132,0.10331337481599062,0.40595757733071713,0.40866277181088895
0.12929913838135484,0.10153561220255253,0.40238191817829394,0.4079231760440729
0.1271144521873903,0.09978925244961706,0.39885036840724153,0.40719793113764813
0.1249680535917049,0.09807371017610039,0.39536209747295326,0.40648656391781285
0.122859240488013,0.09638841213132315,0.39191630040634684,0.40578862180361996
0.1207873248875668,0.09473279689758912,0.38851219676676063,0.40510367179487516
0.11875163258621654,0.09310631460167423,0.38514902964162157,0.4044312995119576
0.11675150284110808,0.09150842663491104,0.38182606469074787,0.4037711082848598
0.11478628805668473,0.089938605381566,0.3785425892332661,0.4031227182888924
0.11285535347966877,0.08839633395521079,0.37529791137522706,0.40248576572462746
0.1109580769027137,0.08688110594281534,0.37209135917605884,0.40185990203978117
0.10909384837642971,0.08539242515628537,0.36892227985210946,0.40124479319085876
0.10726206992949466,0.0839298053911916,0.36579003901559193,0.40064011894249657
0.10546215529657771,0.08249277019243556,0.3626940199473312,0.40004557220254333
0.10416594419734845,0.08108085262661835,0.35963362290177336,0.39946085839102746
0.10305823301694109,0.07969359506087798,0.35660826444281035,0.39888569484124975
0.1019648545446303,0.07833054894797803,0.35361737680900607,0.39831981023133795
0.10088552974785339,0.0769912746174315,0.35066040730689907,0.3977629440446792
0.09981998864295856,0.07567534107245921,0.34773681773110754,0.39721484605773955
0.0987679699088061,0.07438232579258325,0.34484608381002846,0.3966752758538431
0.0977292205180343,0.07311181454166815,0.34198769467594814,0.3961440023615742
0.09670349538518028,0.07186340118122947,0.33916115235849165,0.3956208034165207
0.09569055703088336,0.07063668748883262,0.3363659713003171,0.39510546534515417
0.09469017526143306,0.06943128298141465,0.333601677894072,0.394597782569698
0.09370212686295734,0.0682468047433683,0.3308678100396347,0.39409755723290196
0.09272619530957948,0.06708287725923268,0.3281639167207193,0.3936045988416884
0.09176217048490186,0.06593913225083953,0.325489557599981,0.3931187239286998
0.09080984841620397,0.06481520851877137,0.32284430263176334,0.39263975573081883
0.08986903102077082,0.06371075178799557,0.32022773169169483,0.39216752388378656
0.08893952586379338,0.06262541455753595,0.31763943422238183,0.391701864132087
0.08802114592730916,0.06155885595405791,0.3150790088944482,0.3912426180533105
0.08711370938967408,0.06051074158924041,0.31254606328223855,0.3907896327962499
0.08621703941508162,0.05948074342081705,0.3100402135535223,0.39034276083201974
0.08533096395266547,0.05846853961717108,0.30756108417255024,0.3899018597175303
0.0844553155447448,0.057473814425372416,0.30510830761587227,0.3894667918706784
0.08358993114378988,0.05649625804255365,0.30268152410033045,0.3890374243566536
0.08273465193770646,0.05553556649051694,0.30028038132268264,0.38861362868478666
0.08188932318305457,0.05459144149347728,0.2979045342103135,0.38819528061539915
0.08105379404583551,0.053663590358846325,0.29555364468255463,0.38778225997614246
0.08022791744949753,0.052751725860960275,0.2932273814221109,0.38737445048733543
0.07941154992982673,0.05185556612767006,0.29092541965615126,0.38697173959584397
0.07860455149640447,0.05097483452970153,0.288647440946616,0.3865740183170588
0.07780678550032818,0.05010925957270845,0.286393132989331,0.38618118108456456
0.07701811850790524,0.04925857479193463,0.2841621894215236,0.3857931256070991
0.07623842018004376,0.04842251864941183,0.28195430963736823,0.3854097527324358
0.07546756315707623,0.04760083443361551,0.27976919861119076,0.3850309663178323
0.07470542294876459,0.046793270161511524,0.2776065667279892,0.3846566731067121
0.07395187782924632,0.045999578482919246,0.27546612962094486,0.38428678261126015
0.07320680873669264,0.04521951658713025,0.27334760801559455,0.38392120700063365
0.07247009917746004,0.044452846111712574,0.27125072758038526,0.3835598609944994
0.071741635134527,0.04369933305344309,0.269175218783297,0.38320266176162837
0.07102130498001637,0.04295874768130453,0.267120816754286,0.38284952882329154
0.07030899939161447,0.04223086445149038,0.2650872611532631,0.3825003839612117
0.06960461127270508,0.04151546192436384,0.2630742960433825,0.38215515112984416
0.0689080356760462,0.04081232268331053,0.26108166976937563,0.3818137563727615
0.06821916973082472,0.04012123325544037,0.25910913484072107,0.3814761277429403
0.0675379125729319,0.03944198403408139,0.2571564478194375,0.38114219522675225
0.0668641652783098,0.038774369203020354,0.25522336921226785,0.3808118906714693
0.06619783079922578,0.038118186662441766,0.2533096633670917,0.38048514771611036
0.06553881390333884,0.037473237956519134,0.2514150983733383,0.38016190172546066
0.0648870211154276,0.03683932820261332,0.24953944596626276,0.3798420897271026
0.06424236066165634,0.03621626602203881,0.24768248143487326,0.3795256503513091
0.06360474241626025,0.03560386347235067,0.24584398353337744,0.3792125237736571
0.06297407785053796,0.03500193598111773,0.24402373439597258,0.3789026516602234
0.06235027998404303,0.03441030228113884,0.2422215194548376,0.3785959771152356
0.0617332633378724,0.033828784347066654,0.2404371273611836,0.3782924446310545
0.06112294388995402,0.03325720733340304,0.23867034990922575,0.37799200004037625
0.060519239032240046,0.032695399513827605,0.2369209819629532,0.3776945904705384
0.05992206752971726,0.032143192221830263,0.23518882138556196,0.3774001642998312
0.059331349481149556,0.03160041979260886,0.2334736689714425,0.3771086711157113
0.05874700628147201,0.031066919506204826,0.23177532838060966,0.3768200616748277
0.05816896058575931,0.030542531531842276,0.23009360607545748,0.37653428786476706
0.057597136274695135,0.030126469726248217,0.22842831125975205,0.3762513026674394
0.05703145842147277,0.029721032101239997,0.22677925581974345,0.37597106012401715
0.056471853260059685,0.029321635197022133,0.22514625426733414,0.3756935153013588
0.05591824815476314,0.028928176670848127,0.2235291236851802,0.3754186242598399
0.05537057157103557,0.02854055610418682,0.22192768367366256,0.37514634402252656
0.05482875304746246,0.028158674962006747,0.2203417562996488,0.37487663254562326
0.05429272316887725,0.02778243655307633,0.21877116604695113,0.37460944869013685
0.05376241354055106,0.027411745991252623,0.21721573976842468,0.37434475219469693
0.05323775676340703,0.027046510157723302,0.21567530663962198,0.37408250364947454
0.05271868641021175,0.026686637664178114,0.21414969811394835,0.3738226644711534
0.05220513700269813,0.02633203881687729,0.21263874787924886,0.37356519687889495
0.05169704398957657,0.025982625581592922,0.21114229181575417,0.37331006387125854
0.051194343725393304,0.025638311549394888,0.20966016795535802,0.3730572292040244
0.05069697345019619,0.02529901190325934,0.2088399428837424,0.37280665736888124
0.05020487126997101,0.024964643385472107,0.20811184240015668,0.3725583135729376
0.04971797613781205,0.024635124265806163,0.20738799043206568,0.3723121637190162
0.049236227835793483,0.0243103743104508,0.2066683681564181,0.37206817438669637
0.048759566957508854,0.02399031475166835,0.20595295671739255,0.37182631281407036
0.04828793489124775,0.02367486825816123,0.20524173722178807,0.3715865468801796
0.04782127380378052,0.023363958906126303,0.20453469073502206,0.3713488450880994
0.04735952662472291,0.02309238927886076,0.20383179827769715,0.37111317654864273
0.04690263703145378,0.022963542162224404,0.2031330408226999,0.3708795109646569
0.04645054943456086,0.022836149713673426,0.20243839929279006,0.3706478186158826
0.04600320896378997,0.02271019449262418,0.20174785455865485,0.37041807034435165
0.045560561454474915,0.02258565936344553,0.20106138743738766,0.3701902375403009
0.045122553434426026,0.022462527483893047,0.20037897869136612,0.36996429212857573
0.044689132111256316,0.02234078229414238,0.19970060902749998,0.36974020655550627
0.04426024536012575,0.02222040750639237,0.19902625909681992,0.3695179537762279
0.04383584171188391,0.022101387095006475,0.19835590949438475,0.3692975072424368
0.04341587034159404,0.021983705287169253,0.19768954075947898,0.36907884089055126
0.04300028105742037,0.021867346554026557,0.1970271333760829,0.36886192913026783
0.04258902428986279,0.021752295602287308,0.19636866777359052,0.36864674683349297
0.04218205108132332,0.021638537366262478,0.19571412432775515,0.3684332693236341
0.04177931307598925,0.021526057000317234,0.19506348336184653,0.36822147236523567
0.04138076251001935,0.021414839871717828,0.19441672514799957,0.3680113321539436
0.04098635220201901,0.021304871553847526,0.19377382990873593,0.36780282530678604
0.04059603554379219,0.02119613781977797,0.19313477781864896,0.3675959288527574
0.040209766491357525,0.02108862463617278,0.19249954900623,0.36739062022369245
0.039827499556217186,0.020982318157507895,0.19186812355582683,0.3671868772454174
0.03944918979686761,0.020877204720591735,0.1912404815097195,0.3669846781291685
0.039074792810541076,0.02077327083936875,0.19061660287030135,0.366784001463267
0.038704264725168865,0.020670503199992862,0.18999646760235356,0.36658482620503857
0.03833756219155576,0.020568888656151474,0.18938005563540394,0.36638713167297027
0.03797464237575752,0.02046841422463419,0.18876734686615615,0.36619089753909145
0.03761546295165194,0.020369067081126346,0.18815832116098563,0.36599610382157477
0.03725998209369615,0.020270834556218198,0.1875529583584863,0.3658027308775439
