jointMR1,jointMR2,jointMR3,force
5.587708315001552,5.508852717100985,7.386785258177305,6.044544223254885
5.284741198383871,5.209594114482044,6.977313349561205,5.716386651535551
4.997807680516401,4.926200721340559,6.589675500094318,5.405532242742855
4.7260664620477355,4.6578393425148,6.2227227098281706,5.111074469365142
4.4724360598918995,4.403720384668833,5.898067979067168,4.832154192393234
4.252227046685024,4.163095577726549,5.592349171449774,4.567957186122055
4.05262270055321,3.9352558153128205,5.301832584324352,4.317711792196002
3.8620932424751526,3.737000391618248,5.025767877070067,4.080686696150348
3.680230511458112,3.5489734288528405,4.763441668646946,3.8561888200534242
3.50664462512056,3.3702597377056,4.5141757182917175,3.6435613251880135
3.3409631627315686,3.2004000246995963,4.277325195746309,3.4421817190269266
3.182830384729495,3.0389576145016495,4.066680139063841,3.2514600610576503
3.031906487091838,2.885517336647408,3.869317463945486,3.070837262295201
2.8878668890008212,2.739684467052173,3.681027798943046,2.8997834735917287
2.7504015523186,2.6010837216115585,3.5014013021321,2.7377965581068477
2.619214331452366,2.4693582993287295,3.3300465210497308,2.5844006435446003
2.4940223522529363,2.344168972531102,3.1665895700189535,2.43914474999245
2.3745554186509383,2.225193221859304,3.0106733442241573,2.301601489415045
2.2605554457925483,2.1121244138252298,2.861956768896945,2.1713658330616314
2.1517759184919742,2.0046710188444217,2.720114082044987,2.051287954934851
2.047981373870634,1.9025558677511034,2.584834149226449,1.9471397589918114
1.9489469071034558,1.805515444902182,2.4558198089393732,1.8528218078568313
1.854457699240844,1.713299216069733,2.3368207275278965,1.7634089799439048
1.7643085661209204,1.625668989410068,2.2502805063925098,1.6917418676621188
1.678303527430607,1.542398307881728,2.1943408777621696,1.6237112703933765
1.5962553950161333,1.463271871564842,2.1400518565862274,1.5591294568794407
1.517985379583679,1.3880849884104345,2.08735584084744,1.4978184463087316
1.4433227149692158,1.316643052020676,2.036197485840648,1.4396095005507354
1.372104299193244,1.2487610451299094,1.9865236097708439,1.3843426428657786
1.3072932744898782,1.1842630675217398,1.9382831034310397,1.331866201708885
1.246227243627487,1.122981887179713,1.8933138734921038,1.2820363783185347
1.1896148506802835,1.0696082379382763,1.8565671054076958,1.2347168368494554
1.1403029799633215,1.0276757327139512,1.8206510532274276,1.1897783158733357
1.0931701275750387,0.987584159645233,1.7855427267016606,1.1470982601327335
1.0481182554170743,0.9492511817996963,1.7512199103113464,1.106560471491606
1.0196242865087608,0.9125981526180262,1.7176611333427885,1.0680547780810457
0.9946412513214032,0.8775499507077564,1.6848456412068469,1.0314767206910556
0.970387533491272,0.8529591064045474,1.652753367948997,0.9967272555087212
0.946837828140533,0.8304610550059373,1.6213649098989982,0.9637124723501009
0.9239678197459105,0.8086882158296189,1.5906615004111637,0.9323433275776323
0.9017541407918508,0.7876121909766862,1.560624985648373,0.9025353909370399
0.8801743322103879,0.7672058591383348,1.5312378013650085,0.8742086055876968
0.8592068055292493,0.7474433136160519,1.502482950645966,0.8472870606382746
0.838830806653216,0.7282998034668581,1.474343982560746,0.8216987755354371
0.8190263812070538,0.7097516776132289,1.4468049716934364,0.7973754956873533
0.7997743413715237,0.6934942268515212,1.419850498511101,0.774252498736072
0.7829088512703669,0.6792132787173396,1.39346563053472,0.7522684109233782
0.7678789181353071,0.6652742204251209,1.367635904278401,0.734223571450082
0.7531814238330286,0.6516668565886956,1.342347307924065,0.7196938168624342
0.7388073787766261,0.6383813709360103,1.3175862647002454,0.7054927089356647
0.7247480916268364,0.625408309822897,1.2933396169350027,0.6916111616206759
0.7109951578542222,0.612738566528106,1.2695946107542633,0.6780403993271399
0.6975404487757966,0.6003633662910229,1.24633888139814,0.6647719445277446
0.6843761010456869,0.5882742520554216,1.2235604391289847,0.6517976059031987
0.6714945065803056,0.5764630708844624,1.2012476557060636,0.6391094670033115
0.6588883028993633,0.5649219610138776,1.1793892514028388,0.6266998754006247
0.6465503638648634,0.5536433395119678,1.1579742825438855,0.6145614323141653
0.6344737908010126,0.5426198905165894,1.136992129539461,0.6026869826819405
0.6226519039787142,0.5318445540208246,1.1164324853967096,0.5910696056617885
0.6110782344490296,0.5213105151804412,1.0962853446873855,0.579702605541155
0.5997465162106748,0.511011194117596,1.0765409929528598,0.5685795030372617
0.5886506786972697,0.5009402361965205,1.057189996528,0.5576940269700041
0.5777848395706822,0.4910915027481383,1.0382231927663153,0.5473719189548653
0.5671432978074009,0.48145906222172696,1.0196316806495194,0.5372837144388009
0.5567205270654425,0.47203718174281484,1.0014068117653907,0.5274037119506142
0.546511169319847,0.46282031905756604,0.9835401816385098,0.5177267708122997
0.5365100287553244,0.4538031148448741,0.966023621399114,0.5082479073510067
0.5267120659051263,0.4449803853783353,0.9488491897759519,0.4989622891901356
0.5171123920256819,0.436347115521157,0.9320091653996293,0.489865229770877
0.5077062636969984,0.4278984520379001,0.9154960394035129,0.48095218309439963
0.49848907763925354,0.4196296972077618,0.8993025083098245,0.47221873867532127
0.4894563657364374,0.41153630272486375,0.8834214671890879,0.46366061669750014
0.4806037902582776,0.40361386387173226,0.8678460030815929,0.45527366336358094
0.4719271392720812,0.39585811395284753,0.8525693886700423,0.447053846430093
0.4634223222364801,0.3882649189757862,0.837585076192999,0.4389972509202601
0.45508536576941205,0.3808302725681092,0.8228866915892012,0.43110007500701986
0.4469124095830106,0.37355029111872196,0.8084680288632448,0.4233586260590761
0.43889970257838423,0.3664212091330058,0.7943230446635308,0.4157693168431154
0.4310435990935786,0.3594393747915372,0.7804458530637697,0.4083286618756262
0.4233405552982947,0.35260124570272666,0.7668307205397089,0.40243007437542555
0.41578712572922666,0.34590338484017735,0.7534720611330966,0.398129222835271
0.4083799599601352,0.3393424566560205,0.7403644317952525,0.3940154026708445
0.401115799401037,0.33291522336192436,0.7275025279029239,0.39007942565063336
0.3939914742211243,0.3266185413698631,0.7148811789394282,0.38631257104546085
0.3870039003902692,0.3204493578851445,0.7024953443343807,0.3827065615123096
0.3801500768341828,0.31440470764454687,0.6903401094555859,0.3792535402298828
0.3734270826985123,0.3084817097927761,0.6784106817469482,0.3759460492207439
0.36683207471736673,0.30267756489078035,0.6667023870065167,0.3727770087982653
0.36036228468195053,0.29698955204978394,0.6552106657990339,0.36973969807984425
0.35401501700517085,0.2914150261851959,0.643931069997581,0.3668277365108913
0.3477876463782664,0.2859514153848357,0.6328592594491639,0.36403506634699134
0.3416776155156676,0.28059621838619553,0.6219909987592835,0.36135593604437627
0.33568243298446615,0.2753470021577068,0.6113221541907514,0.3587848845114513
0.3297996711150273,0.2702013995792302,0.6008486906722109,0.3563167261765769
0.3240269639894203,0.2651571072172211,0.5905666689120141,0.3539465368296422
0.31836200550449234,0.2602118831902376,0.5804722426132857,0.35166964019718305
0.31280254750654185,0.25536354512067594,0.5705616557861891,0.34948159521289085
0.3073463979946786,0.25060996816880965,0.5608312401535647,0.34737818394734804
0.30199141939008234,0.24594908314540595,0.5512774126462774,0.34535540016271127
0.29673552686849003,0.2413788746993665,0.5418966729847694,0.34340943845984667
0.29157668675335474,0.2368973795770162,0.5326856013434444,0.3415366839871221
0.2865129149672304,0.23250268494982065,0.5236408560946741,0.3397337026816507
0.28154227553903727,0.22819292680747302,0.517391988663515,0.33799723201532117
0.2766628791649637,0.22396628841343372,0.5119158600724516,0.33632417221937383
0.2718728818208571,0.2198209988201497,0.5065395402561317,0.33471157796265955
0.2671704834240437,0.21575533144130685,0.5012599193982548,0.3331566504600062
0.2625539265426068,0.2117676026786027,0.49607401676014895,0.33165672998835516
0.25802149515023576,0.20785617060064113,0.4909789748778066,0.3302092887894774
0.25357151342483875,0.20401943367166506,0.48597205402247656,0.32881192433920237
0.24920234458918342,0.20025582952795382,0.4810506269128969,0.32746235296411974
0.24491238979191038,0.19656383379981465,0.476212173667784,0.3261584037877175
0.24070008702732792,0.19294195897719182,0.4714542769877137,0.32489801298885174
0.2365639100924656,0.18938875331701363,0.4667746175560046,0.32367921835634
0.2325023675799271,0.18590279979048782,0.4621709696487104,0.32250015412430766
0.22851400190514645,0.18248271506863226,0.4576411969442187,0.32135904607372145
0.22459738836670526,0.1791271485444175,0.4531832485234639,0.3202542068862993
0.2207511342384303,0.17583478138996603,0.4487951550520737,0.3191840317377087
0.21697387789203937,0.17260432564733044,0.44447502513623527,0.3181469941176413
0.21326428794915736,0.16943452335143824,0.4402210418443986,0.3171416418649996
0.20962106246157275,0.16632414568385853,0.4360314593872916,0.31616659340704906
0.20604292811865166,0.16327199215610902,0.4319045999490807,0.3152205341919567
0.2025286394808702,0.16027688982127467,0.4278388506628108,0.31430221330470093
0.19907697823847187,0.15733769251277682,0.4238326607235774,0.3134104402568494
0.19568675249429412,0.15445328010917367,0.419884538633192,0.31254408194119926
0.19235679606985026,0.15162255782393078,0.4159930495703479,0.3117020597427414
0.19001210636256358,0.14884445551914824,0.4121568128806159,0.3108833467978564
0.18797928032589048,0.14611792704227453,0.40837449968079453,0.3100869653940673
0.18597902532525123,0.14344194958488324,0.4046448305724468,0.30931198450307656
0.1840104645499402,0.14081552306263165,0.4009665734596375,0.3085575174401903
0.1820727554187053,0.13823766951555475,0.39733854146614767,0.30782271964359204
0.18016508805962084,0.13570743252789427,0.3937595909476348,0.30710678656726975
0.17828668385905755,0.13322387666669075,0.390228619594418,0.30640895168171794
0.17643679407661558,0.13078608693840535,0.386744564620767,0.3057284845768463
0.17461469852303138,0.12839316826287026,0.3833064010367493,0.3050646891618129
0.17281970429819923,0.1260442449638964,0.3799131399988891,0.3044169019567752
0.1710511445865828,0.12373846027589683,0.37656382723602944,0.30378449047181166
0.16930837750740962,0.12147497586591502,0.3732575415469779,0.3031668516685152
0.16759078501716318,0.11925297137047022,0.3699933933666715,0.3025634104999895
0.165897771861996,0.11707164394666172,0.36677052339772187,0.30197361852520477
0.16422876457779756,0.11493020783699384,0.3635881013043616,0.30139695259387717
0.16258321053575106,0.11282789394741152,0.3604453244659527,0.3008329135982365
0.16096057703131073,0.11076394943805448,0.35734141678731923,0.3002810252882315
0.15936035041462743,0.10873763732626215,0.35427562756333497,0.2997408331469095
0.15778203526053497,0.10674823610137787,0.35124723039525496,0.2992119033228651
0.15622515357629968,0.10479503935092613,0.34825552215645916,0.2986938216168257
0.1546892440454129,0.10287735539774681,0.34529982200531784,0.29818619251958156
0.15317386130578736,0.10099450694769671,0.3423794704430476,0.29768863829862385
0.1516785752607887,0.09914583074753666,0.3394938284144875,0.2972007981309839
0.15020297042160868,0.0973306772526453,0.33664227644983025,0.29672232727989734
0.1487466452795502,0.09554841030421199,0.33382421384543925,0.2962528963130439
0.14730921170686156,0.09379840681557625,0.33103905788194976,0.29579219036022636
0.14589029438481835,0.09208005646739578,0.3282862430779625,0.29533990840846264
0.1444895302578096,0.09039276141133759,0.32556522047768244,0.29489576263257444
0.14310656801224195,0.08873593598199972,0.3228754569709509,0.29445947775944803
0.14174106757912985,0.08710900641678201,0.32021643464418625,0.2940307904642452
0.1403926996592886,0.08551141058343689,0.31758765016082013,0.29360944879692213
0.13906114527010072,0.08394259771504223,0.3149886141698557,0.29319521163750967
0.13774609531286594,0.08240202815214673,0.3124188507412804,0.292787848178679
0.1364472501597995,0.08104933534654002,0.30987789682708367,0.292387137434197
0.13516431925977457,0.0798481071637333,0.3073653017467013,0.29199286777195077
0.13389702076195628,0.07866683563850463,0.30488062669577976,0.291604836470282
0.13264508115650664,0.07750514141161452,0.3024234442771647,0.2912228492964426
0.13140823493157852,0.07636265362817268,0.299993338053109,0.2908467201060429
0.13018622424585546,0.07523900970181008,0.2975899021177135,0.29047627046242064
0.12897879861592218,0.07413385508703102,0.29521274068867465,0.2901113292749157
0.12778571461778893,0.0730468430594115,0.29286146771744437,0.289751732455087
0.1266067356019199,0.07197763450332129,0.2905357065169514,0.28939732258996004
0.12544163142114687,0.07092589770686297,0.28823508940609055,0.28904794863143524
0.12429017817087606,0.06989130816373496,0.28595925737018235,0.28870346560103904
0.12315215794102702,0.06887354838173848,0.2837078597366798,0.28836373430923656
0.12202735857916208,0.06787230769766345,0.2814805538654268,0.2880286210885651
0.1209155734642941,0.06688728209829303,0.27927700485277374,0.287697997539892
0.11981660129088265,0.06591817404728978,0.27709688524892573,0.2873717402911263
0.11873024586254918,0.06538089005218223,0.2749398747879177,0.2870497307677572
0.11765631589506637,0.064983843992508,0.27280566012961094,0.28673185497461945
0.11659462482819277,0.06459295929511727,0.2706939346131769,0.28641800328831746
0.11554499064594959,0.06420808543062695,0.2686043980215258,0.2861080702597713
0.11450723570494742,0.06382907734912263,0.2665367563561747,0.2858019544263728
0.11348118657039591,0.06345579524159328,0.26449072162207354,0.28549955813326505
0.1124666738594402,0.06308810431219786,0.2624660116219306,0.28520078736329146
0.11146353209148857,0.06272587456086937,0.26046234975959215,0.28490555157517033
0.11047159954520863,0.062368980575786825,0.2584794648520572,0.284613763549489
0.1094907181218848,0.06201730133526734,0.2565170909497334,0.2843253392421171
0.1085207332148437,0.06167072001864987,0.25457496716454897,0.2840401976446748
0.10756149358466904,0.06132912382576122,0.25265283750555145,0.28375826065169524
0.10661285123993797,0.06099240380457166,0.25075045072165225,0.28347945293414945
0.10567466132322345,0.06066045468667125,0.24886756015118472,0.283203701819016
0.10474678200212312,0.06033317473020905,0.24700392357796197,0.28293093717459133
0.10382907436507799,0.060010465569953375,0.24515930309352263,0.28266109130125633
0.10292140232176467,0.059692232074150975,0.24333346496528963,0.2823940988274251
0.10202363250784652,0.05937838220787489,0.2415261795103647,0.28212989661041954
0.10113563419388427,0.05906882690256471,0.23973722097468886,0.2818684236420251
0.10025727919821409,0.05876347993147696,0.237966367417334,0.2816096209584934
0.09938844180360812,0.058462257790775296,0.23621340059967522,0.2813534315547723
0.09852899867754622,0.058165079586004476,0.2344781058792207,0.28109980030275616
0.09767882879592837,0.05787186692370311,0.23276027210789207,0.28084867387335166
0.0968378133700713,0.057582543807915276,0.2310596915345302,0.2806000006621788
0.09600583577683669,0.057297036541385404,0.2293761597114523,0.28035373071872055
0.09518278149174658,0.05701527363121622,0.22770947540485298,0.2801098156787553
0.09436853802494793,0.05673718569878705,0.2260594405088887,0.27986820869990986
0.09356299485989455,0.05646270539374021,0.2244258599632527,0.27962886440018025
0.09276604339461997,0.05619176731184716,0.22280854167410902,0.2793917387992732
0.09197757688548552,0.05592430791657582,0.22120729643819748,0.27915678926263254
0.09119749039328301,0.05566026546419378,0.21962193786998596,0.2789239744480172
0.09042568073158852,0.05539957993224198,0.2180522823317208,0.27869325425451025
0.089662046417261,0.05514219295122508,0.21649814886623964,0.27846458977383304
0.08890648762298797,0.05495797411046466,0.21495935913242104,0.278237943243863
0.08815890613178118,0.05478398772495774,0.21343573734315235,0.27801327800423775
0.08741920529333647,0.05461118053350944,0.21192711020569033,0.27779055845395323
0.08668728998216718,0.05443956029947572,0.21043330686431516,0.277569750010852
0.08596306655743458,0.0542691336805351,0.20895415884516422,0.2773508190729179
0.08524644282439059,0.054099906289981514,0.20748950000315158,0.27713373298128324
0.08453732799736519,0.05393188275505656,0.2060391664708663,0.27691845998487186
0.08383563266422323,0.05376506677246684,0.20460299660937697,0.2767049692065959
0.08314126875222361,0.053599461161209505,0.20318083096083006,0.27649323061103404
0.08245414949521795,0.053435067912834366,0.20177251220279024,0.2762832149735201
0.081774189402126,0.05327188823925866,0.20037788510420884,0.27607489385057393
0.08110130422662826,0.05310992261824943,0.19899679648298108,0.275868239551613
0.08043541093802214,0.05294917083668316,0.1976669258743884,0.27566322511187996
0.07977642769318694,0.05278963203167819,0.19693256468849007,0.27545982426653587
0.07912427380960724,0.052631304729712,0.19620292942624995,0.2752580114258541
0.0784788697394066,0.052474186883802565,0.19547798969587382,0.27505776165147316
0.07784013704434356,0.05231827590885385,0.19475771537089548,0.27493763076671995
0.07720799837172876,0.0521635687152473,0.19404207657627048,0.27484457125398076
0.07658237743122098,0.05201006174076073,0.19333104367543608,0.274750110361198
0.07596319897245829,0.051857750980894735,0.19262458725827547,0.2746542888075776
0.07535038876349182,0.05170663201767822,0.19192267812993924,0.27455714634667827
0.07474387356998125,0.05155670004702839,0.19122528730046784,0.27445872179100983
0.07414358113512137,0.05140794990472619,0.19053238597517486,0.2743590530358855
0.07354944016026144,0.05126037609108158,0.18984394554573814,0.2742581770825546
0.07296138028619337,0.05111397279434138,0.18915993758196437,0.27415613006064643
0.07237933207507175,0.05096873391290335,0.18848033382418006,0.2740529472499461
0.07180322699294023,0.05082465307639106,0.18780510617621426,0.27394866310152977
0.07123299739283889,0.050681723665647604,0.18713422669893798,0.2738433112582803
0.07066857649846336,0.05053993883169039,0.18646766760432176,0.2737369245748048
0.07010989838835247,0.050399291513686495,0.18580540124998524,0.2736295351367809
0.06955689798058118,0.05025977445598684,0.18514740013420128,0.273521174279743
0.06900951101793701,0.050121380224268264,0.18449363689133347,0.27341187260733624
0.06846767405355664,0.04998410122082464,0.1838440842876723,0.273301660009052
0.06793132443700328,0.04984792969904883,0.18319871521764974,0.273190565677464
0.06740040030076794,0.04971285777714074,0.18255750270040472,0.2730786181249839
0.06687484054717091,0.04957887745108114,0.1819204198766784,0.27296584520015066
0.06635458483565138,0.04944598060690897,0.18128744000601538,0.2728522741034679
0.06583957357042453,0.04931415903232772,0.180658536464253,0.27273793140281144
0.06532974788849227,0.04918340442768221,0.18003368274127607,0.27262284304841033
0.06482504964799124,0.049053708416329056,0.17941285243902372,0.2725070343874294
0.06432542141686537,0.04892506255443618,0.17879601926972355,0.27239053017815096
0.06383080646184591,0.04879745834023097,0.17818315705434418,0.27227335460378366
0.06334114873773067,0.04867088722273316,0.17757423972124786,0.2721555312858972
0.06285639287694483,0.04854534060999072,0.17696924130502656,0.27203708329750753
0.062376484179374414,0.048420809876845494,0.17636813594551115,0.2719180331758123
0.06190136860246198,0.0482972863722515,0.17577089788693923,0.271798402934597
0.06143099275154984,0.048174761426168056,0.17517750147727118,0.2716782140763154
0.06096530387046484,0.048053226356046475,0.17458792116763777,0.2715574876038578
0.06050424983233149,0.04793267247293531,0.1740021315119169,0.2714362440320178
0.06004777913060788,0.047813091087214876,0.17342010716642187,0.2713145033986647
0.05959584087033021,0.04769447351398881,0.17284182288969574,0.2711922852756282
