jointHR1,jointHR2,jointHR3,force
5.864562521133235,5.579108423394404,7.606402643699009,6.0445442232424496
5.54263698304024,5.277195108905017,7.182362716870426,5.738037586252705
5.237816223198312,4.991251315188021,6.780980552973277,5.447709331877712
4.949201395708072,4.7204392846142245,6.401062887855601,5.17271168095259
4.675940697731053,4.463965075122515,6.041478963554188,4.91224116701026
4.417226911232436,4.221076271295329,5.703699836851131,4.665536322133407
4.172295073099299,3.9910598149505496,5.388163268389574,4.4318754836200895
3.9404202669321537,3.7732399490105797,5.08939568588417,4.210574715156458
3.72091553015745,3.5669762687349973,4.8065176447618105,4.000985836519311
3.523913971650389,3.3716618747118816,4.5386956446391,3.802494556143215
3.3545196229307654,3.1867216222955235,4.285139731387531,3.6145187011825732
3.1929000814861213,3.0116104624554554,4.045101224334552,3.4365065399793435
3.038704295302242,2.845811869264634,3.8178705620701074,3.2679351921127666
2.891596965198833,2.688836349503665,3.6027752606689742,3.1083091214592224
2.7512578396565535,2.540220030094114,3.399177978462337,2.9571587079289796
2.617381041180557,2.399523319297673,3.2118468961474282,2.814038893772803
2.489674422790709,2.2663296378301077,3.0514905211950687,2.6785279005657423
2.3678589532917043,2.1402442162398936,2.955960072535681,2.550226013178634
2.2516681300364842,2.020892955092027,2.8693204209298813,2.4287544272404165
2.140847417953865,1.9079213446780519,2.785107027744309,2.313754156776902
2.0351537136662214,1.8009934411445303,2.7032523499075096,2.2048849988846326
1.9343548335755556,1.6997908960944166,2.6236907265725335,2.101824552462463
1.8382290248464177,1.6040120368695212,2.546358326347027,2.004267288178875
1.7465644982620347,1.5291501661817457,2.47119309602305,1.9119236670003714
1.6844890552316865,1.4577636499805773,2.3981347107628816,1.8245193047458925
1.6356072803776256,1.3896030306225011,2.33374918097481,1.7417941802645285
1.5974512853841734,1.3245247324199472,2.2779485070825336,1.6635018849592296
1.5601651094825029,1.2623915298849273,2.22342363247955,1.5894089114980694
1.5237286539498804,1.2030722675936822,2.1701451279130493,1.5192939796673126
1.4881222996022336,1.1464415923962576,2.1180842619621596,1.452947397427291
1.4533268947063465,1.0932036938596772,2.067212983656575,1.39017045533335
1.4193237432228831,1.0425121630521499,2.017503905562202,1.3307748525800052
1.3860945933701676,0.9940838388955501,1.9689302873199583,1.2745821530174264
1.3536216264990149,0.9648446368462127,1.927779306523322,1.221423269575495
1.321887446269215,0.9382859702838728,1.887991272401423,1.1711379756123983
1.2908750681186056,0.9124652788051757,1.8491443711854056,1.1235744417821107
1.2605679090159625,0.8873620597815415,1.8112123878791027,1.0785887970885089
1.2309497774892413,0.8629563810910132,1.774169980147087,1.0360447128633967
1.2020048639209744,0.8392288651474848,1.7379926441460012,1.0055736927560475
1.1737177311029119,0.8161606733830746,1.7026566818649105,0.9823290765352308
1.1460733050422465,0.7937334911704592,1.6681391699027879,0.9596080015529157
1.1190568660120228,0.7719295131723714,1.6344179296148185,0.9373985577479268
1.0926540398385745,0.7507314291058615,1.6014714985626015,0.9156891133684272
1.0668507894190595,0.7301224099093,1.5692791032065516,0.8944683081378242
1.041633406462404,0.7100860943004539,1.5378206327818504,0.873725046602286
1.0169885034471657,0.6906065757143287,1.5070766143022156,0.8534484916544903
0.992903005790053,0.6716683896098059,1.4770281886384904,0.8336280582284237
0.9693641442190322,0.6532565011344336,1.4476570876216885,0.8142534071602068
0.9463594473451449,0.6353562931370498,1.418945612122603,0.795314439210091
0.9238767344273617,0.6179535545182244,1.3908766110624395,0.7768012892409376
0.9019041083249577,0.6031932863725987,1.363433461311187,0.7587043205486363
0.8804299486320928,0.5900192231709144,1.3366000484325435,0.7410141193400712
0.859442904989431,0.5771424325668554,1.310360748236251,0.7237214893543881
0.838931890567808,0.5645561094379118,1.2847004091005896,0.7068174466234481
0.8188860757191059,0.5522536084468742,1.259604335029616,0.6902932143674931
0.799815054372041,0.5402284401226102,1.2350582694114487,0.6741402180221672
0.7829595044590527,0.5284742670437367,1.2110483794455407,0.6583500803931721
0.7664867165313887,0.5169849001222268,1.1875612412084475,0.6429146169349439
0.7503878368623238,0.505754294984068,1.1645838253290672,0.627825831149859
0.7346542194918247,0.4947765484442087,1.1421034832457395,0.6130759101045855
0.7192774212458508,0.48404589507308227,1.1201079340189235,0.5986572200602999
0.7042491968791161,0.4735567038521328,1.0985852516744417,0.5845623022136045
0.689561494338098,0.4633034749157928,1.0775238530534845,0.5707838685450553
0.6752064501411614,0.4532808363774864,1.0569124861467034,0.5573147977723413
0.661176384872762,0.4434835412372914,1.036740218890825,0.5441481314052052
0.6474637987887683,0.43390646436895663,1.016996428407232,0.5312770698993309
0.6340613675300311,0.424544599584073,0.9976707906629506,0.5186949689064718
0.6209619379414051,0.4153930567712344,0.9787532705354148,0.5063953356181946
0.6081585239935048,0.4064470591081055,0.9602341122632552,0.4943718252006943
0.5956443028045514,0.39770194034437845,0.9421038302662125,0.48261823731820763
0.5834126107597429,0.38915314215366337,0.9243532003180712,0.47215270589734776
0.5714569397256439,0.38079621155240917,0.9069732510572701,0.46359440273335834
0.5597709333571667,0.3726267983840158,0.8899552558205642,0.4552073833425189
0.5483483834947763,0.3646406528663597,0.8732907247858128,0.44698761586689223
0.5371832266496208,0.3568336232009902,0.8569713974106052,0.43893118551013544
0.5262695405743448,0.34920165324233776,0.8409892351540722,0.43103429042771957
0.5156015409174115,0.3417407802252841,0.825336414469807,0.42329323778023226
0.5051735779588126,0.3344471325495365,0.8100053200583959,0.4157044399428764
0.49498013342510283,0.3273169276192597,0.7949885383685802,0.40826441086457405
0.48501581738175537,0.32034646973649206,0.780278851336589,0.40096976257037564
0.47527536520088154,0.3135321480468919,0.7658692303536543,0.3996599389884412
0.46575363460241714,0.30687043453642404,0.7517528304521921,0.4019074694990523
0.45644560276692353,0.30035788207762903,0.7379229847015598,0.4039727652378191
0.4473463635182037,0.2939911225241476,0.7243731988047215,0.40586640910182814
0.43845112457398067,0.28776686485223246,0.7110971458875455,0.4075984122892665
0.4297552048629304,0.2816818933479984,0.6980886614728388,0.4091782445020318
0.42125403190641075,0.275733065839207,0.6853417386315777,0.41061486256483504
0.412943139263266,0.26991731197041224,0.6728505233041304,0.41191673754359637
0.40481816403613413,0.2642316315203357,0.6606093097846091,0.4130918804416003
0.396874844437725,0.2586730927603579,0.6486125363617727,0.4141478665477867
0.3891090174155723,0.25323883085306365,0.6368547811102188,0.41509185850766583
0.38151661633380884,0.24792604628978776,0.6253307578258676,0.4159306281836549
0.37409366871054905,0.24273200336615586,0.6140353121000146,0.41667057736816426
0.36683629400949813,0.23765402869463548,0.6029634175264822,0.41731775740942845
0.3597407014844459,0.2326895097531414,0.5921101720366371,0.41787788780696644
0.35280318807533717,0.22783589346875754,0.5817402509871823,0.4183563738305637
0.34602013635464474,0.2230906848356936,0.571983619147808,0.4187583232138702
0.33938801252280304,0.2184514455665697,0.5624158502703909,0.41908856197102595
0.33290336445149493,0.21391579277620332,0.5530327680452705,0.4193516493822027
0.32656281977361157,0.2094813976970491,0.5438303042809214,0.41955189219155475
0.3203630840187403,0.20514598442549858,0.5348044955706268,0.4196933580587926
0.3143009387930605,0.20090732869824524,0.5259514800787828,0.41977988830344404
0.30837324000255995,0.19676325669796002,0.517267494442057,0.419815109978829
0.30257691611850884,0.19271164388753215,0.5087488707808638,0.41980244731083105
0.2969089664841583,0.18875041387215352,0.5003920338167771,0.41974513253472345
0.2913664596616544,0.1853126712862121,0.49219349809170065,0.41964621616156594
0.2859465318181876,0.18197563837665487,0.4841498652847933,0.4195085767040415
0.28064638515041895,0.1787021033955425,0.47625782162330865,0.41933492989004006
0.2757433714368448,0.17549072879189598,0.46851413538366415,0.4191278373908228
0.27107619586465737,0.1723402099740533,0.4609156544792328,0.4188897150891875
0.2664995644308657,0.16924927432079506,0.4534593041314572,0.4186228409117372
0.2620114922594231,0.16621668022809466,0.4461420846210713,0.41832936224808936
0.25761004486469097,0.16324121619002663,0.43896106911631416,0.41801130297866806
0.25329333663564346,0.16032169991244893,0.43191340157517133,0.4176705701315945
0.24905952937332917,0.15745697745812715,0.42499629471878575,0.4173089601881125
0.2449068308794992,0.1546459224220219,0.418207028073319,0.41692816505497854
0.24083349359440065,0.1518874351355286,0.4115429460776303,0.41652977772126987
0.2368378132818175,0.14918044189850066,0.4050014562542783,0.4161152976161655
0.23291812775952137,0.14652389423794754,0.3985800274414226,0.41568613568337787
0.22907281567336854,0.1439167681923349,0.39227618808333165,0.4152436191870986
0.22530029531335782,0.14135806362047654,0.3860875245772726,0.41478899626354393
0.22159902347002933,0.138846803534036,0.38001167967466976,0.4143234402314483
0.21796749432965262,0.13638203345271116,0.3740463509344869,0.41384805367415645
0.21440423840671885,0.1339628207812027,0.36818928922688876,0.4133638723053005
0.21090782151231055,0.13158825420711817,0.36243829728530463,0.41287186862942715
0.20747684375698197,0.12925744311899112,0.3567912283050978,0.41237295540834007
0.20410993858684034,0.1269695170436319,0.35124598458711365,0.41186798894335896
0.20080577185157011,0.12472362510206347,0.3458005162244595,0.41135777218316916
0.1975630409031972,0.12251893548332604,0.34045281983092357,0.4108430576664268
0.19438047372443468,0.12035463493545506,0.3352009373095093,0.4103245503077947
0.19125682808550426,0.11822992827298973,0.3300429546596211,0.4098029100356513
0.18819089072836748,0.1161440379003682,0.3249770008215098,0.4092787542892634
0.18518147657734868,0.11409620335061443,0.3200012465566091,0.4087526603828139
0.18222742797516975,0.11208568083873716,0.31511390336249523,0.4082251677432951
0.17932761394345798,0.11011174282928471,0.3103132224212011,0.4076967800288971
0.1764809294668257,0.10817367761753094,0.30559749357971744,0.40716796713418435
0.17368629479965864,0.10627078892377673,0.30096504436151483,0.40663916708802217
0.17094265479478002,0.1044023955002894,0.29641423900800246,0.40611078784990073
0.16824897825319676,0.10256783075039921,0.2919434775488521,0.4055832090100041
0.16560425729416167,0.10076644235932553,0.28755119490018966,0.4050567833981059
0.16300750674481757,0.09899759193628177,0.28323585998965917,0.40453183860608966
0.1604577635487196,0.09726065466746414,0.2789959749074393,0.4040086784286533
0.15795408619255719,0.09555501897952368,0.2748300740823042,0.40348758422650743
0.15549555415042826,0.09388008621314015,0.2707367234818576,0.40296881621616876
0.15308126734503857,0.0922352703063436,0.2667145198361225,0.4024526146902103
0.15071034562522956,0.09061999748722438,0.2627620898836722,0.4019392011716495
0.148381928259257,0.08903370597570848,0.2588780896395453,0.40142877950595257
0.14609517344326728,0.0874758456940703,0.2550612036841944,0.40092153689394816
0.14384925782444108,0.08594587798587816,0.25131014447276634,0.40041764486878084
0.14164337603829263,0.08444327534307883,0.24762365166402867,0.39991726021985985
0.1394767402596322,0.08296752114093209,0.24400049146827962,0.3994205258666089
0.1373485797667241,0.08151810938053183,0.2404394560136125,0.39892757168467874
0.13525814051818275,0.08009454443864328,0.23693936272992766,0.3984385152871367
0.1332046847421713,0.07869634082461308,0.23349905375010227,0.39795346276301946
0.13118749053748607,0.07732302294410698,0.230117395327754,0.3974725093755155
0.1292058514861218,0.07597412486944277,0.2267932772710617,0.3969957402219102
0.12725907627692923,0.07464919011630144,0.223525612392113,0.3965232308573342
0.12534648833999457,0.07334777142659665,0.22031333597127967,0.39605504788422796
0.12346742549137918,0.07206943055729942,0.2171554052361402,0.39559124950935187
0.1216212395878784,0.07081373807502234,0.21405079885447176,0.3951318860700651
0.1198072961914623,0.06958027315617032,0.21099851644087808,0.394677000531508
0.11802497424308328,0.0683686233924784,0.20799757807660701,0.3942266289562413
0.11627366574554182,0.06717838460175796,0.20504702384214757,0.39378080094780565
0.11455277545511194,0.06605978596595147,0.2021459133622021,0.3933395400695947
0.11286172058164418,0.06500544851900314,0.19929332536265143,0.39290286424036125
0.11119993049687232,0.0639686665413387,0.19648835723913294,0.39247078610760044
0.10956684645065629,0.06294913582673362,0.19373012463686967,0.3920433133999963
0.10796192129490856,0.06194655790003001,0.19101776104142498,0.3916204492600496
0.10638461921496062,0.06096063988661726,0.18835041738001324,0.39120219255795086
0.10483441546813099,0.05999109438593819,0.18572726163307673,0.39078853818770165
0.10331079612926747,0.05903763934885109,0.18363799053238616,0.3903794773464365
0.10181325784304662,0.05809999795869791,0.181669248433038,0.3899749977978504
0.10034130758281579,0.057177898515922476,0.1797393090406305,0.38957508412058206
0.0988944624157776,0.05627107432610323,0.17784729864778437,0.38917971794236816
0.09747224927431719,0.055379263591258665,0.17599236363583826,0.3887888781607284
0.09607420473328665,0.054502209304303384,0.1741736700118799,0.3884025411509153
0.09469987479306002,0.05363965914652685,0.17239040295646801,0.3880206809618092
0.09334881466818545,0.05279136538797874,0.17064176638181694,0.3876432695004157
0.09202058858146511,0.05195708479065264,0.16892698250018556,0.3872702767055809
0.0907147695632965,0.0511365785143556,0.16724529140223665,0.38690167071150605
0.08956376434387048,0.050329612025168,0.16559595064514632,0.38653741800162067
0.08847713621861719,0.049535955006391574,0.16397823485020635,0.38617748355333437
0.08741208247740256,0.04875538127189882,0.16239143530974087,0.3858218309741622
0.08636812210048667,0.047987668681789,0.16083485960308153,0.38547042262970155
0.0853447850296431,0.04723259906027272,0.15930783122141823,0.3851232197638965
0.0843416119172603,0.046489958115699836,0.1578096892013059,0.3847801826120165
0.08335815388121359,0.04575953536265748,0.15633978776661994,0.3844412705067478
0.08239397226536821,0.0450411240460617,0.15489749597878522,0.3841064419777763
0.08144863840558852,0.04433452106717606,0.15348219739506885,0.38377565484521725
0.08052173340112068,0.04363952691148609,0.15209328973475444,0.38344886630723185
0.07961284789122797,0.042955945578370125,0.15073018455301557,0.3831260330221554
0.07872158183695638,0.04228358451250047,0.14939230692231087,0.3828071111854331
0.0778475443079093,0.0416222545369217,0.14807909512112571,0.3824920566016584
0.07699035327392106,0.040971769787744194,0.14679000032988476,0.38218082475198323
0.07614963540150693,0.04033194765040504,0.14552448633388115,0.381873370857156
0.07532502585499024,0.0397026086974393,0.14428202923304778,0.38156964993643505
0.07451616810218842,0.03908357662771983,0.14306211715841655,0.38126961686260497
0.0737227137245588,0.03847467820710854,0.14186424999511527,0.38097322641331854
0.0729443222316995,0.03787574321048509,0.14068793911174304,0.3806804333189663
0.07218066088010411,0.03728660436510134,0.13953270709598065,0.3803911923072727
0.07143140449607205,0.03670709729522453,0.13839808749628935,0.3801054581448039
0.07069623530268032,0.036137060468027504,0.13728362456956522,0.3798231856755616
0.06997484275071963,0.03557633514068981,0.13618887303459637,0.3795443298568295
0.06926692335350831,0.03502476530867116,0.13511339783120624,0.37926884579243003
0.06857218052548858,0.034482197655123614,0.13405677388493276,0.37899668876353465
0.06789032442452425,0.03394848150140828,0.13301858587713622,0.3787278142571814
0.06722107179780823,0.033423468758684016,0.13199842802038786,0.3784621779926135
0.06656414583130305,0.03290701388053757,0.13099590383904136,0.37819973594558387
0.06591927600262748,0.03239897381662604,0.1300106259548437,0.37794044437073027
0.0652861979373126,0.031899207967299725,0.12904221587748554,0.37768425982214215
0.06466465326834969,0.0314075781391836,0.12809030379997455,0.3774311391722218
0.06405438949895531,0.030923948501684895,0.12715452839870856,0.37718103962893945
0.063455159868474,0.030448185544404316,0.12623453663815964,0.376933918751584
0.06286672322135395,0.029980158035427584,0.12532998358004388,0.3766897344650887
0.06228884387912048,0.029519736980470224,0.12444053219688644,0.3764484450730283
0.061721291515278276,0.029066795582855076,0.12356585318987201,0.3762100092693581
0.061163841033076816,0.02862120920430078,0.12270562481088843,0.37597438614897993
0.060616272446072705,0.028182855326499667,0.12185953268866134,0.3757415352171971
0.06007837076142375,0.027751613513463058,0.12102726965889232,0.37551141639813757
0.059549925865852615,0.027426525826922066,0.1202085355982967,0.3752839900421978
0.05903073241421908,0.027126562692584955,0.1194030372624626,0.37505921693257815
0.058520589720639504,0.02683299924819471,0.1186104881274419,0.37483705829095915
0.05801930165209762,0.02654569199081669,0.1178306082349787,0.3746174757823799
0.05752667652448723,0.026264500621910436,0.1170631240412976,0.3744004315193603
0.05704252700103013,0.025989287975995756,0.1163077682693745,0.3741858880653278
0.056776379693158796,0.025719919950911385,0.1155642797645946,0.3739738084373829
0.05658109995454913,0.02545626543962598,0.11483240335374001,0.3737641561084515
0.05638927595563786,0.025198196263570338,0.11411188970721176,0.37355689500886646
0.05620080258907062,0.02494558710745587,0.11340249520442414,0.3733519895274128
0.05601557793780326,0.024698315455542574,0.11270398180228991,0.37314940451187306
0.055833503181866695,0.02445626152933089,0.1120161169067353,0.37294910526911285
0.055654482507787095,0.02421930822663676,0.11133867324716085,0.37275105756472815
0.05547842302058953,0.02398734106202849,0.11067142875379576,0.37255522762229665
0.05530523465830939,0.023760248108585458,0.11001416643786488,0.37236158212225146
0.05513483010894488,0.02353791994095733,0.10936667427452074,0.37217008820041075
0.054967124729779215,0.023320249579688812,0.10872874508845443,0.3719807134461881
0.054802036469006665,0.02310713243678464,0.10810017644214565,0.37179342590050124
0.05463948578959876,0.022898466262484818,0.1074807705266787,0.3716081940534126
0.05447939559534637,0.0226941510932277,0.10687033405506696,0.3714249868415124
0.05432169115901697,0.022494089200767453,0.10626867815803154,0.37124377364507233
0.054166300052567895,0.022298185042425867,0.10567561828217742,0.37106452428498204
0.05401315207935742,0.022106345212449918,0.10509097409050683,0.3708872090194928
0.053862179208297556,0.021918478394453267,0.10451456936522119,0.3707117985407785
0.05371331550989372,0.021734495314911784,0.10394623191275976,0.3705382639713355
0.05356649709411848,0.021554308697699698,0.10338579347102073,0.3703665768602322
0.05342166205006771,0.02137783321962894,0.10283308961870907,0.3701967091792223
0.05327875038734847,0.02120498546698646,0.10228795968678206,0.3700286333187409
0.05313770397915013,0.021035683893028123,0.10175024667191535,0.36986232208378234
0.052998466506951614,0.02086984877642606,0.10121979715197149,0.3696977486896904
0.05286098340681805,0.02070740218063527,0.10069646120340447,0.36953488675785084
0.05272520181724233,0.020548267914165197,0.10018009232056291,0.3693737103113135
0.052591070528487605,0.02039237149173323,0.09967054733685976,0.36921419377034403
0.05245853993338917,0.02023964009628343,0.0991676863477371,0.36905631194791666
0.0523275619795735,0.020090002541847007,0.09867137263541759,0.3689000400451562
0.052198090123055096,0.0199433892372326,0.09818147259538068,0.36874535364673866
0.05207007928317209,0.019799732150517335,0.0976978556645256,0.36859222871625485
0.05194348579882252,0.019658964774332155,0.09722039425099682,0.36844064159154544
