jointMR1,jointMR2,jointMR3,force
6.083731947379599,5.698939999036821,7.190950604730421,6.150612081770732
5.745792405792358,5.385914347689274,6.837527055604294,5.808374827275677
5.426090634027883,5.0897313212323105,6.500886627504681,5.484624136595551
5.123652084642097,4.809491676987527,6.180239677149988,5.178371714506217
4.837554102231117,4.544344044516258,5.8748335838939205,4.888681901515948
4.566923163927558,4.293482379975099,5.58395101645894,4.614668874516559
4.310932266566238,4.056143555774433,5.306908280764931,4.355493996229337
4.068798452725423,3.8316050783499738,5.043053745059675,4.110363305538768
3.839780468263809,3.619182927239518,4.791766338735219,3.8785251412271107
3.623176544365633,3.418229509018608,4.552454121383347,3.6592678920208646
3.4183222974775185,3.22813171999158,4.324552918804626,3.4519178662366095
3.2484224375040105,3.0483091118585346,4.107525022839072,3.255837274670566
3.0889475717273185,2.8782121548860324,3.900857952033091,3.0704223207138113
2.93704736645926,2.7173205934000055,3.704063270296907,2.8951013919949053
2.792365404620672,2.565141888694687,3.5166754608398296,2.7293333481544564
2.654561980349178,2.4212097447121046,3.3382508527975756,2.572605899642822
2.5233133166284656,2.2863849201043385,3.168366598086841,2.4244340727036477
2.3983108195231853,2.179999315926239,3.00661969613755,2.2843587559629293
2.2792603673071476,2.0792393224706838,2.8526260642631627,2.165401238323468
2.1658816328526407,1.9829584661120148,2.706019651534142,2.058577257729271
2.0579074377249635,1.8909596489709601,2.5664515941195454,1.9568420133968474
1.9550831364990886,1.8030544188062887,2.4335894101569,1.8599557205510315
1.8571660298847525,1.719062590191206,2.3337669901277964,1.767689844589904
1.7639248053123513,1.6388118822817381,2.2683959962112707,1.679861621509536
1.6751390036950855,1.5621375724505115,2.205215795434702,1.6153259793645947
1.5905985111428902,1.4888821650911641,2.154260803667461,1.5601979709101192
1.5101030744609207,1.4188950749290314,2.108731673046596,1.5074418275579
1.433461839320008,1.3520323242028545,2.0643512503389725,1.4569529625558952
1.3618526520582095,1.2881562531100625,2.021083190241029,1.4086314390623897
1.301994604535715,1.227135242934797,1.9788925521029126,1.3623817627339478
1.2447218736083785,1.1688434513032613,1.9377457382258454,1.318112683578021
1.189922143516689,1.1131605590353126,1.8976104350574876,1.2757370066561247
1.139601845780763,1.0599715280844675,1.858455557144686,1.2351714112419792
1.0967873029923734,1.009166370080723,1.820251193709941,1.1963362780567506
1.0557130737301035,0.9635706087023742,1.7829685577245131,1.159155524220367
1.0175473872966094,0.9205112202340237,1.7465799373573412,1.1235564455740592
0.9897265514952179,0.8793466836195721,1.711058649684911,1.0894695660446967
0.9628232326155939,0.839993810918047,1.6763789965528506,1.0568284937361834
0.9424449729159127,0.8182030275420307,1.642516222485412,1.0255697834473014
0.9227568267532247,0.8000998294234978,1.6094464745440993,0.995632805328768
0.903556281043902,0.7824713378018007,1.5771467640415582,0.966959619405178
0.8848281592847314,0.7653025449638513,1.5455949300214513,0.9394948556997141
0.866557866167681,0.7485789957406057,1.5147696044194279,0.9131855997112563
0.8487313621325013,0.7322867651312862,1.484650178824458,0.887981283004709
0.8313351391139356,0.7164124368804613,1.4552167727637644,0.8638335786860442
0.8143561974255507,0.7009430829663933,1.4264502034383417,0.8406963015437988
0.7977820237250707,0.6858662439609154,1.398331956839635,0.8185253126484916
0.781600570008806,0.6711699102228372,1.3708441601813375,0.7972784282107765
0.7658002335853555,0.6568425038885697,1.3439695555835114,0.7769153325080316
0.7503698379812197,0.6428728616252521,1.3176914749492923,0.7573974946975982
0.7352986147332883,0.6292502181132009,1.2919938159773643,0.7386880893430184
0.7205761860253866,0.6159641902259597,1.2668610192561642,0.7207519204873657
0.706192548128173,0.6030047618776281,1.2422780463884089,0.703555349115191
0.692138055603674,0.5903622695084856,1.218230359097047,0.6870662238516918
0.6784034062376583,0.5780273881812021,1.1947038992661188,0.6712538147544691
0.6649796266648459,0.565991118261147,1.1716850698722747,0.6560887500597123
0.6518580586536742,0.5542447726554715,1.149160716764849,0.641542955750823
0.6390303460189751,0.5427799645867615,1.1271181112544415,0.6275895978233877
0.6264884221324661,0.5315885958781166,1.105544933471899,0.6142030271260482
0.614224498002436,0.5206628457275279,1.084429256461439,0.6013587266622022
0.6022310508954053,0.5099951599504055,1.0637595309734218,0.5890332612426038
0.5905008134738771,0.49957824067003365,1.0435245709239398,0.5772042293838593
0.5790267634255529,0.48940503643661615,1.0237135394899917,0.5658502173524916
0.5678021135606037,0.47946873275643154,1.0043159358105194,0.5549507552587449
0.5568203023547157,0.46976274301342014,0.9853215822650102,0.5444862751085731
0.5460749849167316,0.4602806997663089,0.9667206123027586,0.5344380707263556
0.5355600243607318,0.4510164464051154,0.9485034587971505,0.5247882594647886
0.5252694835633847,0.4419640291515843,0.9306608429005939,0.5155197456221327
0.5151976172883349,0.43311768938878337,0.9131837633768813,0.5066161854905711
0.5053388646602767,0.42503622527319007,0.8960634863888886,0.4980619539628322
0.49568784197221005,0.4173885220911484,0.8792915357205812,0.48984211262749455
0.4862393358101803,0.4098980036355162,0.8631300811600721,0.4819423792864907
0.47698829648055563,0.40256069698250907,0.8484842880668988,0.4743490988313109
0.4679298317256363,0.39537275440232034,0.8341181037283453,0.46704921541723315
0.4590592007140628,0.38833044871716904,0.8200251189431006,0.4600302458776255
0.4503718082931606,0.38143016884783487,0.8061991091952493,0.45328025432295177
0.44186319949096897,0.3746684155406871,0.7926340281802939,0.44678782787158705
0.43352905425630517,0.3680417972675569,0.7793240015869841,0.44054205346191694
0.42536518242576726,0.36154702629114077,0.7662633211242339,0.43453249569744257
0.4173675189071282,0.355180914888924,0.7534464387828603,0.4287491756787845
0.4095321190690663,0.34894037172893577,0.7408679613223274,0.4231825507785225
0.4018551543276784,0.34282239839091844,0.7285226449730918,0.41782349531679347
0.3943329079206679,0.3368240860267807,0.716405390345561,0.41266328209743564
0.3869617708605503,0.3309426121544675,0.7045112375370507,0.40769356476627316
0.3797382380586226,0.32517523757962774,0.6928353614285071,0.4029063609548485
0.37265890461185214,0.3195193034397106,0.6813730671631066,0.39829403617454584
0.36572046224520427,0.3139722283653462,0.6701197857991886,0.3938492884276204
0.3589196959022971,0.30853150575409016,0.659071070130292,0.389565133503142
0.352253480477605,0.3031947011518241,0.6482225906653898,0.3854348909272893
0.34571877768375936,0.29795944973730737,0.6375701317626975,0.38145217053879726
0.3393126330478027,0.29282345390556463,0.6271095879107204,0.3776108596616678
0.33303217303054633,0.2877844809459855,0.6168369601504785,0.37390511084849304
0.3268746022634591,0.28284036081118424,0.6071855227064227,0.3703293301689387
0.3208372008977787,0.27798898397284033,0.5999567640877472,0.3668781660190637
0.3149173220607939,0.27322829936090187,0.592880143559815,0.36354649842824793
0.3091123894144807,0.26855631238268896,0.5859508398471913,0.36032942884152847
0.30341989481190634,0.2639710830185823,0.5791642201572766,0.35722227035614296
0.29783739604703324,0.25947072399112325,0.5725158322115733,0.35422053839202156
0.2923625146937575,0.2550533990044913,0.5660013966224275,0.3513199417768769
0.2869929340302182,0.25071732105144917,0.5596167996001586,0.34851637422740284
0.2817263970445973,0.24646075078497462,0.553358085976148,0.3458059062089196
0.27656070451880854,0.24228199495191324,0.5472214525280845,0.34318477715659224
0.27149371318664317,0.23817940488610437,0.5412032415941745,0.34064938804210365
0.2665233339631031,0.23415137505853587,0.5352999349636987,0.3381962942703797
0.2616475302418016,0.2301963416821928,0.5295081480318511,0.3358221988916547
0.2568643162574621,0.2263127813693607,0.5238246242073226,0.3335239461148232
0.25217175551067994,0.22249920983924024,0.518246229561597,0.3312985151086486
0.24756795925224873,0.21875418067382277,0.5127699477094125,0.3291430140779995
0.24305108502447326,0.21507628412006277,0.5073928749102958,0.3270546746028613
0.2386193352570169,0.21146414593646326,0.502112215381531,0.32503084622841033
0.23427095591493952,0.20791642628227583,0.49692527681333076,0.3230689912949681
0.230004235196694,0.20443181864758972,0.49182946607739475,0.3211666799971475
0.2258175022799519,0.20100904882265505,0.4868222851204196,0.3193215856619823
0.22170912611322566,0.19764687390486288,0.4819013270344936,0.3175314802362857
0.21767751425135073,0.19434408134186246,0.4770642722966665,0.31579422997392037
0.2139713435229776,0.1910994880093668,0.4723088851703168,0.31410779131407657
0.2113812910829773,0.18791193932225517,0.46763301026126425,0.3124702069420545
0.20884237437521974,0.18478030837764184,0.4630345692218871,0.31087960202442516
0.20635314332524765,0.1817034951286353,0.45851155759678974,0.30933418061080464
0.20391219982695308,0.1786804255875651,0.4540620418038599,0.3078322221948304
0.20151819565018386,0.1757100510575069,0.4496841562448135,0.30637207842724795
0.19916983043689404,0.17279134739098398,0.4453761005395913,0.30495216997434405
0.1968658497820146,0.1699233142747694,0.4411361368792137,0.3035709835152546
0.19460504339538753,0.16710497453976234,0.43696258749193695,0.30222706887197276
0.19238624334126586,0.16433537349494728,0.4328538322177813,0.30091903626615085
0.1902083223520339,0.16161357828449616,0.42880830618671384,0.2996455536970579
0.18807019221294757,0.158938677267103,0.4248244975959763,0.29840534443530414
0.18597080221483497,0.1563097794166862,0.420900945582251,0.29719718462718603
0.18390913767182834,0.1537260137436234,0.4170362381845327,0.2960199010047299
0.18188421850132816,0.15118652873572522,0.4132290103937726,0.2948723686967422
0.1798950978635206,0.14869049181817842,0.4094779422855155,0.2937535091363673
0.1779408608578863,0.146237088831731,0.405781757231932,0.29266228806087496
0.17602062327424958,0.14382552352841346,0.4021392201897884,0.29159771359956993
0.17413353039602453,0.14145501708412297,0.39854913606106623,0.29055883444591424
0.1722787558534149,0.13912480762742638,0.3950103481230698,0.28954473811012016
0.17045550052442346,0.13683414978396244,0.3915217365250132,0.2885545492486391
0.16866299148161915,0.1345823142358484,0.3880822168481959,0.2875874280671332
0.1669004809826986,0.13236858729552284,0.3846907387270142,0.2866425687936675
0.1651672455029659,0.13019227049347956,0.38134628452817076,0.2857191982190037
0.16346258480793316,0.12805268017936752,0.3780478680855557,0.28481657430102136
0.16178582106432515,0.1259491471359551,0.37479453348839376,0.28393398483041615
0.16013629798784393,0.1238810162054774,0.37158535392034575,0.283070746154962
0.15851338002612111,0.12184764592790495,0.3684194305473596,0.28222620195973636
0.15691645157535428,0.11984840819068834,0.36529589145216446,0.2813997221008282
0.15534491622918817,0.11788268788955711,0.3622138906133865,0.280590701490157
0.15379819605846493,0.11594988259996028,0.359172606927358,0.27979855902913825
0.1522757309205255,0.1140494022587619,0.3561712432707773,0.2790227365890305
0.1507769777968035,0.11218066885581149,0.35320902560245204,0.2782626980358949
0.1493014101575058,0.11034311613503153,0.3502852021024374,0.27751792829819344
0.1478485173522266,0.10853618930467432,0.3473990423469602,0.276787932475135
0.14641780402539234,0.10675934475641666,0.34454983651758075,0.2760722349839678
0.1450087895554818,0.10501204979297343,0.34173689464311674,0.27537037874449216
0.14362100751701123,0.10329378236392292,0.33895954587292043,0.2746819243991488
0.14225400516431932,0.10160403080945099,0.33621713778015594,0.27400644956710807
0.14090734293622667,0.09994229361173126,0.3335090356937864,0.2733435481308556
0.139580593980686,0.09830807915366915,0.3308346220580367,0.2726928295538394
0.1382733436985767,0.0967009054847516,0.3281932958181484,0.2720539182278039
0.13698518930583375,0.09512030009374992,0.3255844718313001,0.27142645284850125
0.13571573941313714,0.0935657996880375,0.3230075803016108,0.27081008581852306
0.13446461362241924,0.0920369499792891,0.32046206623819296,0.2702044826760598
0.13323144213948196,0.09053330547534297,0.3179473889352671,0.26960932154843836
0.13201586540204419,0.08905442927800958,0.31546302147339556,0.2690242926293484
0.1308175337225704,0.08759989288662515,0.31300845024092294,0.2684490976787097
0.12963610694525887,0.08616927600714949,0.31058317447477113,0.2678834495441834
0.12847125411659444,0.08476216636662334,0.30818670581974783,0.2673270717033732
0.127322653168897,0.0833781595327984,0.3058185679055898,0.26677969782580424
0.12618999061632097,0.08201685873876949,0.30347829594097386,0.26624107135380876
0.12507296126278444,0.08067787471243812,0.30116543632378057,0.26571094510148596
0.12397126792132901,0.07936082551064635,0.2988795462669125,0.26518908087093995
0.12288462114443313,0.0780653363578255,0.29662019343900403,0.26467524908503715
0.12181273896482192,0.07679103948900987,0.2943869556193972,0.264169228435955
0.12075534664633603,0.07553757399707242,0.2921794203667669,0.26367080554882866
0.11971217644444132,0.07430458568404227,0.2899971847008238,0.2631797746598328
0.11868296737597817,0.0730917269163722,0.28783985479653773,0.2626959373080621
0.1176674649977677,0.07189865648402757,0.2857070456903499,0.2622191020406088
0.1166654211937071,0.0707250394632723,0.2835983809978695,0.26174908413025355
0.11567659397000346,0.06957054708303495,0.28151349264256664,0.26128570530522055
0.11470074725820917,0.06843485659473852,0.2794520205949993,0.260828793490465
0.11373765072573741,0.06731765114548502,0.2774136126221285,0.26037818255998957
0.11278707959354939,0.06621861965448872,0.2753979240462976,0.25993371209970556
0.11184881446071818,0.06513745669265508,0.2734046175134701,0.2594952271803789
0.110922641135587,0.06407386236520857,0.2714333627703349,0.25906257814021755
0.11000835047325136,0.06302754219727202,0.2694838364499097,0.2586356203766812
0.10910573821910613,0.06229036442378927,0.2675557218652822,0.2582142141471089
0.10821460485820988,0.0621241056300223,0.265648708811155,0.2577982243777791
0.10733475547022908,0.06195816487367345,0.2637624933728626,0.2573875204810361
0.10646599958973474,0.061792591371985894,0.26189677774255005,0.25698197618012963
0.10560815107163438,0.06162743116743208,0.26005127004221773,0.25658146934143067
0.10476102796153056,0.061462727291391295,0.25822568415334435,0.2561858818137042
0.10392445237080655,0.0612985199198795,0.25641973955281316,0.2557950992741311
0.10309825035624837,0.061134846521705366,0.2546331611548873,0.25540901108078357
0.10228225180401967,0.06097174199941574,0.25286567915897495,0.25502751013127756
0.10147629031781502,0.06080923882336947,0.2511170289029503,0.2546504927273289
0.10068020311102294,0.060647367159270826,0.24938695072180317,0.2542778584449629
0.09989383090273851,0.06048615498946974,0.2476751898113918,0.25390951001012557
0.09911701781747154,0.06032562822833115,0.24598149609709608,0.2535453531794682
0.09834961128840253,0.06016581083194933,0.24430562410716394,0.25318529662607725
0.0975914619640453,0.06000672490248282,0.24264733285056517,0.25282925182993926
0.09684242361818146,0.05984839078736309,0.241006385699164,0.2524771329729307
0.09610235306293591,0.05969082717362356,0.2393825502740372,0.25212885683814457
0.09537111006487076,0.05953405117757937,0.237775598335767,0.2517843427133585
0.09464855726397717,0.059378078430085524,0.23618530567855145,0.2514435122984744
0.09393456009545204,0.05922292315757627,0.23461145202797318,0.25110628961675
0.09322898671415003,0.05906859825909794,0.233053820942283,0.2507726009296665
0.0925317079216064,0.058915115379517324,0.23151219971705372,0.25044237465527
0.09184259709552978,0.0587624849790962,0.2299863792930712,0.25011554128984265
0.09116153012166966,0.058610716399602136,0.2284761541673328,0.24979203333275687
0.09048838532796583,0.05845981792712229,0.2269813223070274,0.2494717852143778
0.08982304342089137,0.05830979685174176,0.22550168506637958,0.24915473322688353
0.08916538742390528,0.05816065952423055,0.22403704710624583,0.24884081545787837
0.08851530261793294,0.05801241140989133,0.22258721631634937,0.24852997172667884
0.08787267648379676,0.057865057139696474,0.22115200374005428,0.2482221435231588
0.08723739864652286,0.05771860055885303,0.21973122350157648,0.24791727394904703
0.08660936082145193,0.057573044772911364,0.21832469273553756,0.24761530766156736
0.08598845676208569,0.057428392191542166,0.21693223151876473,0.24731619081932793
0.08537458220960364,0.05728464457009286,0.21555366280426047,0.2470198710303602
0.0847676348439868,0.057141803049028494,0.21418881235724263,0.24672629730221726
0.08416751423668806,0.05699986819136238,0.21283750869318996,0.24643541999404525
0.08357412180479101,0.05685884001817243,0.2114995830178028,0.24614719077054348
0.08298736076660251,0.05671871804229678,0.21017486916881611,0.2458615625577331
0.08240713609862421,0.05657950130029532,0.20886320355958632,0.24557848950046052
0.08183335449385343,0.056441188382763685,0.20756442512438555,0.245297926921558
0.08126592432136331,0.056303777463077354,0.20627837526534498,0.2450198312825975
0.08070475558711576,0.056167266324647525,0.2050048978009753,0.24474416014616482
0.0801497598959614,0.05603165238675101,0.20374383891621028,0.24447087213959565
0.07960085041478401,0.055896932729017634,0.2024950471139182,0.24419992692010864
0.07905794183674733,0.05576310411462593,0.20125837316782058,0.24393128514127918
0.07852095034660417,0.055630163012285294,0.20003367007676998,0.24366490842079624
0.07798979358703029,0.055498105617050264,0.19882079302033673,0.24340075930945143
0.07746439062594529,0.05536692787003328,0.19761959931565287,0.2431388012613052
0.07694466192478616,0.05523662547706876,0.1964299483754719,0.24287899860498663
0.07643052930769886,0.055107193926375087,0.19525170166739603,0.24262131651607335
0.07592191593161596,0.054978628505269356,0.1940847226742306,0.24236572099051293
0.07541874625718856,0.05485092431598049,0.1929288768554247,0.24211217881903907
0.074920946020543,0.05472407629060294,0.19178403160955781,0.2418606575625433
0.07442844220583333,0.054598079205235184,0.19065005623783748,0.24161112552836111
0.07394116301856185,0.05447292769334433,0.1895268219085693,0.24136355174743881
0.07345903785964086,0.054348616258394156,0.18841420162256606,0.24111790595233898
0.07298199730017094,0.05422513928577277,0.18731207017946372,0.24087415855605684
0.0725099730569101,0.0541024910540544,0.18622030414491197,0.24063228063161016
0.0720428979684111,0.053980665745633094,0.18513878181860743,0.24039224389237168
0.07158070597180388,0.05385965745675214,0.18406738320314342,0.2401540206731169
0.07112333208020127,0.05373946020696685,0.18300598997364537,0.2399175839117532
0.0706707123607074,0.05362006794806384,0.18195448544816628,0.2396829071317088
0.07022278391300812,0.05350147457246801,0.1809127545588176,0.23944996442494898
0.0697794848485247,0.05338367392116117,0.17988068382360844,0.2392187304355993
0.06934075427011177,0.053266659791134985,0.17885816131896948,0.23898918034414823
0.06890653225228172,0.0531504259424086,0.17784507665294247,0.23876128985220732
0.06847675982193854,0.05303496610462388,0.17684132093900806,0.23853503516780764
0.06805137893960403,0.05292027398324828,0.1758467867705351,0.23831039299120735
0.0676303324811211,0.0528063432653999,0.17486136819582754,0.2380873405011965
0.06721356421981844,0.052693167625316284,0.17388496069375514,0.2378658553418722
0.06680101880912187,0.05258074072948493,0.17291746114994155,0.2376459156098714
0.06639264176559806,0.05246905624145293,0.17195876783349906,0.23742749984203962
0.06598837945241742,0.05235810782633277,0.17100878037428813,0.23721058700352116
0.06558817906322234,0.052247889155018656,0.17006739974068763,0.23699515647625152
0.06519198860638872,0.05213839390813002,0.16913452821785802,0.23678118804783876
0.06479975688966816,0.05202961577969667,0.16821006938648408,0.23656866190081755
