jointFR1,jointFR2,jointFR3,force
5.977975323602103,5.687508051495215,7.215878356290599,6.150612073608464
5.646304824913227,5.3745475567027405,6.8054643168542235,5.808374801798702
5.332525318236626,5.078422301740265,6.458272606382131,5.484624089974671
5.035680938639737,4.7982337092442595,6.150067552357385,5.178371648327098
4.754866715177796,4.533131028146034,5.855822441946405,4.888681821497992
4.489225864586934,4.282308790853957,5.574916349988843,4.6146687894028835
4.237947228812141,4.045004405573405,5.306755783336943,4.355493916830965
4.0002628487273215,3.8204958765839123,5.0507734719695865,4.110363243917534
3.7754456668106258,3.608099645674587,4.806427213330611,3.8785251100030647
3.562807351922834,3.407168548299947,4.573198767548837,3.659267903791159
3.3616962397005876,3.2170898783605035,4.350592801300397,3.4519179330939513
3.1714953824209497,3.037283555836167,4.138135878172469,3.255837407810359
2.9916207025202852,2.8672003918072977,3.935375493481705,3.0704225301200525
2.8215192442594006,2.7063204456885743,3.7418791515907968,2.8951016861957664
2.66066751831964,2.5541514697757473,3.557233483852639,2.755856635541844
2.5085699343916468,2.4102274364657434,3.381043405393916,2.6466061709390054
2.364757317080933,2.2741071437570453,3.2129313090286136,2.542261972342713
2.228785500702821,2.1453728948707194,3.0525362946672043,2.4426043811780014
2.1002339987745535,2.0236292480534304,2.8995704851606616,2.3474235622271875
2.00344937095344,1.9085018328330667,2.75505690676719,2.2565190643924247
1.9235601224632406,1.7996362291957793,2.6368689569067882,2.169699401100726
1.8467604068930574,1.707202967296814,2.5723954200695283,2.0867816494728015
1.772931948066142,1.6267265019662285,2.509766649720185,2.007591067416504
1.701960976628766,1.5498827304295453,2.4518647841634036,1.9319607278431188
1.633738058660468,1.4833993557102771,2.4034986393381024,1.8597311692406604
1.5681579307992235,1.4261591877489936,2.3563033685024233,1.790750061872564
1.5051193416337345,1.3710942535826116,2.310243231604352,1.7248718889029313
1.4445248991244943,1.3181221199768498,2.265283798534948,1.6619576417806918
1.3862809238243554,1.2671634779513152,2.221391895847978,1.6018745292449867
1.3302973076780609,1.2181420242527763,2.1785355557535997,1.5444956993425338
1.2764873781885768,1.1709843473313022,2.136683967287078,1.4896999738750392
1.2247677677461783,1.125619817647894,2.0958074295578264,1.4373715947207215
1.175058287923977,1.081980482148764,2.06245442892697,1.3873999814989126
1.1272818085510663,1.0400009627477262,2.031236694894967,1.3396795000704211
1.0813641413816497,0.9996183586641847,2.0005978400499824,1.294109241389062
1.03723392818542,0.9607721524700406,1.9705242938355443,1.2505928102414334
0.9948225330911207,0.923404119704426,1.9410028911270498,1.209038123432705
0.9540639390216045,0.8874582419205419,1.9120208576612163,1.1693572169959916
0.9148946480648682,0.8528806230340749,1.8835657960478975,1.131466062021775
0.8920397192521651,0.8196194088476194,1.8556256723397535,1.095284388721864
0.8713272857080434,0.787624709630325,1.8281888031363218,1.0607355183596627
0.8511796175430283,0.7568485256366062,1.8012438432000444,1.0277462026949626
0.8315783319396765,0.7272446754521493,1.7747797735627744,0.996246470607217
0.8125057308457039,0.6987687270597382,1.7487858901022062,0.9661694815762853
0.7939447733059322,0.6713779315215029,1.7232517925685618,0.9374513857139976
0.7758790489612332,0.6450311591781193,1.698167374042706,0.9100311900536001
0.7582927526641837,0.6196888382693075,1.673522810807675,0.8838506308172462
0.7411706601633327,0.596612825672705,1.6493085526163802,0.8588540513942127
0.7244981048100744,0.5833335548719978,1.6255153133389744,0.8349882857744865
0.708260955244127,0.5704177650547162,1.6021340619740974,0.8122025471937693
0.6924455940155297,0.5578533882349841,1.5791560140088732,0.7904483217568767
0.6770388971029009,0.5456288150950361,1.556572623113194,0.7696792668169237
0.6620282142894528,0.5337328761851272,1.5343755731544366,0.7498511138976381
0.6515767899056751,0.5221548239233467,1.5125567705193523,0.7309215759556649
0.6416524491069563,0.5108843153607046,1.491108336730443,0.7128502587888058
0.6319084794396361,0.499911395678355,1.470022601344667,0.6955985764048093
0.6223408420938379,0.48922648238528205,1.4492920951228483,0.6791296701736357
0.6129456114831302,0.47882035018614416,1.428909543458653,0.6634083315940154
0.6037189714075264,0.4686841164903071,1.4088678600564726,0.6484009285127118
0.5946572113636983,0.4588092275343471,1.3891601408480079,0.6340753346421044
0.5857567229963604,0.449187445091526,1.3697796581377841,0.620400862228627
0.5770139966850316,0.4398108337428905,1.350719854968237,0.6073481977311807
0.5684256182606344,0.4306717486857507,1.331974339695417,0.5948893403749492
0.559988265846622,0.42176282405635873,1.3135368807667283,0.5829975434520541
0.5516987068195496,0.41307696174460745,1.2954014016924948,0.5716472582462476
0.5435537948842246,0.40460732067954414,1.2775619762034816,0.5608140804643162
0.5355504672587712,0.3963473065654159,1.2600128235868433,0.5504746990621349
0.5276857419651465,0.38829056204884366,1.2427483041932854,0.5406068473583062
0.519956715220833,0.3804309572985715,1.2257629151085287,0.5311892563331106
0.5123605589276103,0.3727625809800423,1.2090512859824605,0.5222016100150774
0.5048945182534862,0.36527973160782373,1.192608175009637,0.5136245028618361
0.49755590930402666,0.35797690925965003,1.1764284650550636,0.5054393990461009
0.49034211687949,0.3508488076365483,1.1605071599194436,0.4976285935616128
0.48325059231431383,0.3438903064541918,1.1448393807383184,0.4901751750676778
0.47627885139565485,0.3370964641512773,1.1294203625097705,0.48306299039458134
0.4694244723578163,0.33046251090132855,1.1142454507455755,0.47627661063562826
0.46268509394953256,0.3239838419149294,1.0993100982409028,0.4698012987548794
0.4560584135712059,0.31765601101994995,1.0846098619578788,0.463622978642829
0.4495421854793139,0.31147472450786823,1.0701404000185128,0.45772820555529753
0.4431342190553203,0.3054358352348096,1.0558974688026805,0.4521041378737019
0.4368323771365347,0.29953533696641904,1.0418769201470346,0.44673851012764065
0.4306345744064732,0.2937693589561496,1.0280746986408922,0.4416196072233609
0.424538775842373,0.2881341607470113,1.0144868390153023,0.43673623982420834
0.4185429952176129,0.28262612718724495,1.0011094636216644,0.43207772083155904
0.4126452936568843,0.27724176365080916,0.9879387799964157,0.4276338429170478
0.4068437782420471,0.2719776914539553,0.9749710785084464,0.4233948570590956
0.40113660066669055,0.26683064345955015,0.96220273008605,0.41935145203884605
0.39552195593750133,0.2617974598611606,0.9496301840203334,0.4154947348526265
0.3899980811206185,0.2568750841392666,0.9372499658421556,0.41181621199996515
0.3845632541312323,0.2520605591822926,0.9250586752697687,0.40830777160802983
0.3792157925647537,0.2473510235654704,0.9130529842244648,0.4049616663550999
0.37395405256795067,0.24274370798084138,0.9012296349116307,0.4017704971573598
0.36877642774851566,0.2382359318120028,0.8895854379647337,0.39872719758489344
0.3636813481215876,0.2338250998474713,0.8781172706498472,0.39582501897428607
0.3586672790918161,0.2295086991268091,0.8668220751284375,0.39305751620670076
0.35373272046961163,0.2252842959139037,0.8556968567762138,0.3904185341216838
0.34887620552028076,0.22114953279203936,0.8447386825559435,0.38790219453828384
0.3440963000447996,0.21710212587562722,0.8339446794422163,0.3855028838563436
0.33939160149102876,0.2131398621336828,0.8233120328962149,0.3832152412120289
0.3347607380942216,0.20926059682035064,0.8128379853886469,0.38311191143017265
0.33020236804572534,0.2054622510079795,0.8025198349690488,0.384228101076048
0.325715178688818,0.20174280921844318,0.7923549338797542,0.3852563066436536
0.3212978857406673,0.19810031714858883,0.7823406872128909,0.3862009623787529
0.3169492325394394,0.194532879485871,0.772474551608828,0.3870662966207451
0.31266798931562345,0.19103865781039914,0.7627540339945638,0.38785634113067424
0.3084529524866763,0.18761586857978768,0.7531766903606052,0.388574940000207
0.30430294397412727,0.1842627811933532,0.7437401245749469,0.389225758160343
0.30021681054231797,0.1809777161323533,0.7344419872328138,0.3898122895077901
0.29619342315798475,0.17775904317309793,0.7252799745408816,0.3903378646661224
0.29223167636992275,0.17460517966990846,0.7162518272347473,0.39080565839809733
0.288330487708002,0.17151458890501908,0.7073553295284649,0.3912186966847372
0.28448879710083386,0.1684857785026485,0.6985883080950088,0.3915798634861277
0.2807055663114141,0.16551729890458272,0.6899486310765766,0.39189190719817424
0.2769797783900972,0.16260774190472554,0.6814342071236787,0.39215744681894926
0.27331043714427944,0.15975573924018144,0.6730429844620154,0.39237897783764064
0.26969656662419506,0.15695996123654027,0.6647729499861632,0.39255887785853316
0.266137210624252,0.1542191155051304,0.6566221283791525,0.39269941197189273
0.26263143219935725,0.15153194569010603,0.6485885812570331,0.39280273788310405
0.2591783131957019,0.1488972302633202,0.6406704063375757,0.39287091081088743
0.25577695379549886,0.14631378136502698,0.6328657366322827,0.392905888164954
0.25242647207518376,0.14378044368853587,0.6251727396609128,0.39290953401298045
0.24912600357661024,0.1412960934070237,0.6175896166877595,0.3928836233463523
0.24587470089078806,0.13885963714078348,0.6101146019789481,0.39282984615369165
0.24267173325373093,0.13647001096326533,0.6027459620800508,0.39274981131079567
0.23951628615399626,0.13412617944432997,0.5954819951133341,0.3926450502952097
0.23640756095151658,0.13182713472920699,0.588321030093993,0.39251702073330696
0.23334477450733718,0.1295718956517113,0.5812614262647431,0.3923671097873801
0.2303271588238886,0.12735950688033099,0.574301572448165,0.39219663738992316
0.22735396069543848,0.12518903809586218,0.5674398864162222,0.39200685933195933
0.22442444136837877,0.12323991659543737,0.5606748142763933,0.39179897021196164
0.22153787621101922,0.1214174034214291,0.5540048298738809,0.3915741062516168
0.21869355439256918,0.11962366683349829,0.5474284342093796,0.39133334798441577
0.21589077857100283,0.11785820919895412,0.5409441548719032,0.39107772282276687
0.21312886458951344,0.11612054268815702,0.5345505454861941,0.3908082075090934
0.21040714118127415,0.11441018904282935,0.5282461851742521,0.39052573045611694
0.20772494968223298,0.11272667935110697,0.5220296780305349,0.39023117398130136
0.20508164375167964,0.11106955382909828,0.5158996526104065,0.3899253764402093
0.20247658910033242,0.10943836160872539,0.5098547614314162,0.389609134263314
0.1999091632257016,0.10783266053163215,0.5038936804870149,0.38928320390059556
0.19737875515449554,0.1062520169489502,0.49801510877232125,0.3889483036780649
0.19488476519184458,0.10469600552672381,0.4922177678215711,0.38860511557017696
0.1924266046771248,0.10316420905680052,0.48650040125689364,0.3882542868919028
0.1900036957461731,0.10165621827300436,0.4808617743480712,0.3878964319140764
0.1876154710996922,0.10017163167241255,0.4753006735829508,0.3875321334054628
0.18526137377765087,0.09871005534156535,0.4698159062481897,0.3871619441048404
0.18294085693949247,0.09727110278744505,0.46440630002002714,0.3867863881262412
0.18065338364997183,0.09585439477306529,0.459070702564786,0.3864059623003593
0.1783984266704458,0.0944595591575183,0.45380798114881493,0.386021137454991
0.1761754682554505,0.09308623074033556,0.44861702225759936,0.38563235963725606
0.17398399995440317,0.09173405111001859,0.44349673122377253,0.38524005128021077
0.17182352241827298,0.090402668496605,0.4384460318637673,0.38484461231636147
0.16969354521107016,0.08909173762814088,0.43346386612286447,0.3844464212404646
0.16759358662600848,0.08780091959093078,0.4285491937283954,0.38404583612389265
0.16552317350620133,0.08652988169344716,0.42370099185086585,0.38364319558275595
0.1634818410697556,0.08527829733378162,0.41891825477278166,0.3832388197018488
0.16146913273913416,0.08404584587052438,0.4141999935649572,0.3828330109164212
0.15948459997465977,0.08283221249696665,0.40954523577009727,0.3824260548536714
0.15752780211204012,0.08163708811851905,0.40495302509345277,0.3820182211357692
0.15559830620379594,0.080460169233248,0.400422421100356,0.38160976414615344
0.15369568686447915,0.07930115781543062,0.3959524989204424,0.38120092376074877
0.1518195261195719,0.07815976120203832,0.391542348958384,0.3807919260456928
0.14996941325796037,0.07703569198205668,0.38719107661095165,0.3803829839230769
0.14814494468788164,0.07592866788855551,0.38289780199023826,0.3799742978061431
0.1463457237962448,0.07483841169342648,0.378661659652882,0.3795660562053249
0.14457136081123104,0.07376465110470659,0.37448179833512163,0.3791584363064334
0.14282147266808035,0.0727071186664115,0.3703573806935394,0.37875160452225953
0.1410956828779763,0.07166555166080141,0.36628758305133635,0.37834571701878494
0.1393936213999422,0.07063969201300918,0.3622715951499944,0.3779409202171492
0.1377149245156657,0.06962928619796066,0.358308619906192,0.3775373512724731
0.13605923470717105,0.06863408514951869,0.3543978731738322,0.3771351385305812
0.1344262005372616,0.06765384417178738,0.35053858351105305,0.3767344019636204
0.1328154765326565,0.06668832285251275,0.3467299919520952,0.37633525358553466
0.13122672306974914,0.06573728497852077,0.3429713517839026,0.37593779784830395
0.12965960626291678,0.06480049845313157,0.33926192832733637,0.3755421320198178
0.12811379785531268,0.06387773521549672,0.3356009987228876,0.37514834654421636
0.12658897511207484,0.06296877116180216,0.3319878517207768,0.3747565253854934
0.1250848207158876,0.06207338606828622,0.3284217874753306,0.3743667463551179
0.12360102266483358,0.06119136351602045,0.3249021173435316,0.3739790814244005
0.12213727417247616,0.06032249081740476,0.3214281636876388,0.3735935970222971
0.12069327357011447,0.059466558944328785,0.3179992596817789,0.3732103543193066
0.1192687242111543,0.05862336245795424,0.3146147491224143,0.3728294094980994
0.11786333437754043,0.05779269944007298,0.3112739862425926,0.37245081401147717
0.1164768171881976,0.05697437142599865,0.30797633552988946,0.37207461482823523
0.11510889050942852,0.05616818333894974,0.304721171547953,0.3717008546674857
0.11375927686721944,0.0553739434258837,0.3015078787615686,0.3713295722219587
0.11242770336140512,0.05459146319474378,0.29833585136516194,0.3709608023707869
0.11111390158164607,0.053820557353081055,0.29520449311465446,0.3705945763822537
0.10981760752517325,0.05306104374801396,0.2921132171625984,0.3702309221069573
0.10853856151625584,0.05231274330749186,0.28906144589651395,0.369869864161832
0.10727650812734946,0.05157547998282702,0.2860486107803544,0.3695114241054408
0.10603119610188372,0.050849080692462634,0.2830741521990279,0.36915562060494156
0.1048023782786485,0.05013337526694478,0.2801375193059066,0.3688024695950999
0.10358981151774024,0.04942819639506718,0.277238169873256,0.3684519844297224
0.10239325662803031,0.04873337957115881,0.27437557014551617,0.3681041760258458
0.10121247829611861,0.048048763043485654,0.271549194695375,0.3677590530010203
0.10004724501673674,0.047374187763736864,0.2687585262825676,0.3674166218040048
0.09889732902456615,0.046709497337570294,0.266003055715343,0.3670768868391677
0.09776250622743739,0.04605453797618919,0.26328228171454016,0.36673985058489167
0.09664255614087797,0.0454091584489244,0.2605957107802128,0.36640551370624863
0.09553726182397673,0.044773210036798294,0.25794285706075204,0.36607387516221856
0.09444640981653424,0.044146546487045024,0.2553232422244476,0.3657449323076877
0.0933697900774686,0.04352902396856462,0.25273639533343784,0.3654186809904848
0.09230719592444803,0.042920501028286984,0.25018185271999704,0.36509511564366937
0.09125842397472156,0.042320838548425166,0.24765915786510928,0.3647742293732956
0.09022327408712005,0.041729899704595286,0.24516786127927737,0.364456014041865
0.08920154930520117,0.04114754992478298,0.24270752038552645,0.3641404603476577
0.08819305580151172,0.040573656849135664,0.24027769940454702,0.3638275579001419
0.08719760282294213,0.04000809029056146,0.23787796924193993,0.3635172952916379
0.08621500263714843,0.03945072219611567,0.23550790737751348,0.36320966016541134
0.08524507048001759,0.03890142660915574,0.23316709775659406,0.36290463928035965
0.0842876245041527,0.03836007963224758,0.2308551306833071,0.36260221857245567
0.08334248572835543,0.03782655939080498,0.2285716027157847,0.36230238321309094
0.08240947798808329,0.03730074599744598,0.226316116563265,0.3620051176644692
0.08148842788686049,0.03678252151704858,0.22408828098504285,0.3617104057321838
0.08057916474862087,0.03627176993249098,0.2218877106912307,0.3614182306151139
0.07968152057096278,0.03576837711105951,0.2197140262452979,0.36112857495276063
0.07879532997929589,0.03527223077151054,0.21756685396834796,0.36084142087014826
0.07792043018186025,0.034783220451770014,0.21544582584510308,0.36055675002039567
0.07705666092559905,0.034301237477257385,0.21335057943155689,0.3602745436250806
0.07620386445286625,0.03382617492981965,0.21128075776426614,0.3599947825124855
0.07536188545895131,0.03335792761726181,0.20923600927124442,0.359717447153837
0.07453057105040342,0.032896392043460565,0.20721598768443195,0.3594425176976266
0.07370977070413814,0.03244146637904827,0.20522035195370303,0.35916997400210493
0.07289933622730985,0.03199305043265549,0.20324876616238718,0.3588997956660377
0.07209912171793349,0.03155104562269778,0.2013008994442691,0.35863196205780123
0.07130898352624024,0.031115354949697915,0.1993764259020432,0.358366452342903
0.07052878021675123,0.03068588296912883,0.19747502452719012,0.3581032455099955
0.06975837253105435,0.030262535764768617,0.19559637912125116,0.35784232039546005
0.06899762335126965,0.029845220922554927,0.19374017821846867,0.3575836557066254
0.06824639766418858,0.029433847504928612,0.19190611500977228,0.3573272300436894
0.06750456252607358,0.029028326025656304,0.19009388726808019,0.3570730219204038
0.06677198702810383,0.02862856842512168,0.1883031972748921,0.35682100978358133
0.06604854226245428,0.028234488046075368,0.1865337517481478,0.35657117203148514
0.06533410128899463,0.027845999609834082,0.18478526177133103,0.3563234870311498
0.0646285391025957,0.027463019192919214,0.18305744272378854,0.3560779331346908
0.06393173260103086,0.02708546420412611,0.18226106524946517,0.3558344886946442
0.06324356055346016,0.026713253362014966,0.1817000183123365,0.3555931320783958
0.0625639035694856,0.026346306672813846,0.18114206080496298,0.3553538416817271
0.061892644068765865,0.025984545408727244,0.1805871678599822,0.3551165959415403
0.06122966625117916,0.025627892086639126,0.18003531527221583,0.35488137334778647
0.06057485606752342,0.025276270447204985,0.17948647946651097,0.354648152454647
0.05992810119074271,0.024929605434322932,0.17894063746705924,0.3544169118909978
0.059289290987669704,0.024587823174977874,0.17839776686813424,0.35418763037019907
0.05865831649127369,0.02425085095944951,0.17785784580618214,0.35396028669923685
0.058035070373404184,0.023918617221877936,0.17732085293321465,0.3537348597872537
0.05741944691802031,0.023591051521179518,0.17678676739144228,0.3535113286534963
0.05681134199489636,0.02326808452230561,0.1762555687891023,0.35328967243471265
0.05621065303379414,0.022949647977837273,0.1757272371774239,0.3530698703920221
0.05561727899909298,0.022635674709909848,0.17520175302868668,0.3528519019172883
0.05503112036486837,0.02232609859246054,0.1746790972153216,0.3526357465390204
0.054452079090410534,0.022020854533791878,0.17415925099001384,0.3524213839278234
0.05388005859617437,0.021719878459446507,0.17364219596675712,0.3522087939014249
0.053314963740152335,0.021423107295385324,0.1731279141028328,0.3519979564292972
0.05275670079466207,0.021130478951464027,0.17261638768165422,0.35178885163689777
0.05220517742354085,0.020841932305202593,0.17210759929645403,0.3515814598095458
0.051660302659738894,0.020557407185840593,0.17160153183477367,0.35137576139595483
0.05112198688330401,0.02027684435867466,0.17109816846371184,0.35117173701144266
0.05059014179974984,0.02000018550967031,0.17059749261591306,0.3509693674408281
