jointFR1,jointFR2,jointFR3,force
5.969127511698356,5.65254415408288,7.555923936362496,6.150612083702547
5.643275204295414,5.346917053034886,7.126795567410643,5.815802213163971
5.334703790429509,5.057458618110846,6.721007296971288,5.498927285753746
5.042505901513556,4.783320558861555,6.3373080648853195,5.1990312294924195
4.765821641470484,4.523698954450274,5.974513511451829,4.915208834875024
4.50383610633621,4.277831935594113,5.631502428484638,4.6466030510955605
4.255777033395317,4.044997487556547,5.331185178494442,4.392402425958224
4.020912573086196,3.8245113678706866,5.070030140506878,4.151838681840401
3.7985491772655733,3.6157251328030973,4.820970107035711,3.924184420477983
3.5880295977569943,3.418024266880504,4.583456354877429,3.7087509497278783
3.388730989425012,3.2308264100983193,4.356964848536331,3.50488622582608
3.2000631123174506,3.053579677710711,4.140995133367743,3.3119729050042377
3.0214666277030724,2.8857610677683168,3.935069278272918,3.1294264986536553
2.8524114831020215,2.726874951822019,3.7387308657286322,2.9566936265344426
2.692395381662371,2.576451644450426,3.5515440270336622,2.798481216724751
2.540942331478719,2.434046047495374,3.3738621073023785,2.650602284246563
2.397601270678683,2.299236365104703,3.2055516344515946,2.5106815880629276
2.2619447643210946,2.1716228858851427,3.0450538872176605,2.378293923623348
2.133567769356232,2.0508268286612075,2.8920148811645494,2.254603816227774
2.0120864640941973,1.9364892485189507,2.7527384474649073,2.149012059068695
1.8971371388131002,1.8282699999867966,2.6960704643643125,2.0490968412533266
1.7883751443145588,1.7258467543700489,2.6409556527109608,1.9545550362969968
1.6854738954007167,1.6299983470172985,2.5869190053962035,1.8650996541088027
1.588123926404938,1.5528854913330754,2.533939231655603,1.7804589830282398
1.496031996058094,1.4797885051707078,2.4819954758290708,1.7003757774589634
1.4089202391142415,1.410043783036537,2.4310673078283207,1.6246064886767886
1.3475387788159923,1.3434804703113372,2.381134713839682,1.5529205365177914
1.3195590163877038,1.2799553512061368,2.332178087255427,1.4850996197742405
1.2921554164178324,1.2193316265706498,2.284178219827017,1.4209370632415512
1.2653158992083506,1.1614786268609114,2.2371162930338713,1.3602371994686921
1.239028652989735,1.1062715379405845,2.1909738696615126,1.3028147833679917
1.2132821271963512,1.0535911391421604,2.1457328855831186,1.248494437938251
1.1880650259482302,1.0033235530399407,2.101375641738732,1.1971101294478623
1.1633663017313296,0.9553600064111818,2.059111258345356,1.1485046705124544
1.1391751492687323,0.9095966018852091,2.0196937425180037,1.1025292495848047
1.1154809995755517,0.8799110457756365,1.9810750629958238,1.0706573689195127
1.0922735141906874,0.8622178034212342,1.9432378844302103,1.0482161452956347
1.069542579578812,0.844886920922548,1.9061652934524247,1.0262345285656786
1.0472783016963199,0.8279108366090482,1.8698407866286666,1.004702995966113
1.0254710007152146,0.8112821550355551,1.8342482588208937,0.9836122310241749
1.0041112058991866,0.794993642876316,1.7993719919378566,0.9629531185952477
0.9831896506263746,0.779038224942477,1.7651966440614564,0.9427167400440393
0.9626972675535623,0.7634089803183157,1.7317072389341532,0.9228943685643279
0.9426251839167596,0.7480991386117857,1.698889155793733,0.9034774646322619
0.9229647169633677,0.7331020763151441,1.666728119542314,0.8844576715884442
0.9037073695113035,0.7184113132716068,1.635210191237005,0.865826811344208
0.8848448256306785,0.7040205092441612,1.6043217588901475,0.8475768802077145
0.8663689464437918,0.6899234605828253,1.5740495285675675,0.8297000448256665
0.8482717660394022,0.6761140969868193,1.5443805157737318,0.812188638236634
0.8305454874973813,0.6625864783582573,1.5153020371131638,0.7950351560321393
0.813182479020041,0.6493347917441132,1.4886468362248377,0.7782322526218176
0.7961752701665658,0.6363533483633619,1.4626583933897237,0.7617727375991244
0.7795165481871242,0.6236365807163222,1.437161362071911,0.7456495722042134
0.7631991544533923,0.6111790397733519,1.4121462917560836,0.7298558658807285
0.7472160809823304,0.5989753922401828,1.3876039155227045,0.7143848729234167
0.7315604670502012,0.5870204178972629,1.3635251464195206,0.6992299892135614
0.7162255958939309,0.5753090070106319,1.3399010739073582,0.684384749039395
0.7012048914970233,0.5638361578119038,1.3167229603785735,0.6698428219987278
0.6864919154573645,0.5525969740450762,1.2939822377465704,0.655598009981164
0.6720803639343434,0.5415866625779543,1.271670504104836,0.6416442442273806
0.6579640646728216,0.5308005310760762,1.2497795204539768,0.6279755824630264
0.6441369741015851,0.5202339857371056,1.2283012074952853,0.614586206104915
0.6305931745039906,0.5098825290837502,1.2072276424893915,0.601470417537267
0.6173268712586228,0.4997417578133311,1.1865510561785986,0.5886226374558396
0.6043323901478412,0.4898073607022103,1.1662638297715282,0.5760374022778779
0.5916041747321994,0.4800751165633472,1.1463584919887388,0.5637093616158874
0.5791367837887711,0.4705408922553326,1.1268277161680096,0.5516332758133089
0.5669248888115074,0.4612006407413012,1.1076643174280147,0.5398040135402561
0.554963271571815,0.45205039919619605,1.0888612498891443,0.5282165494475328
0.5432468217376032,0.4430862871609087,1.0704116039502523,0.5168659618772182
0.531770534549123,0.4343045047418823,1.0523086036201488,0.5057474306281781
0.5205295085499749,0.42570133085481077,1.0345456039026748,0.49485623477490714
0.5095189433717213,0.4172731215111235,1.0171160882342267,0.4841877505381798
0.4987341375705962,0.409016308145999,1.000013665972625,0.47373744920602723
0.4881704865148584,0.4009273959866795,0.9832320699362491,0.463500895103624
0.4778234803213818,0.3930029624599265,0.9667651539923761,0.4534737436107112
0.4676887018401308,0.38523965563748286,0.9506068906937009,0.44365173922523155
0.45776182468520915,0.37763419271845433,0.9347513689620237,0.4340307136719021
0.4480386113112206,0.370183358547563,0.9191927918181209,0.4246065840544885
0.4385149111337209,0.3628840041682616,0.9039254741568412,0.4153753510505941
0.42918665869257855,0.35573304540973316,0.88894384056648,0.406333097147811
0.42004987185710624,0.3487274615068301,0.874242423191518,0.39747598492012415
0.41136351563353885,0.34186429375205485,0.8598158596378247,0.3888002553434959
0.40425825106313995,0.33514064417869194,0.8456588909194447,0.3803022261495893
0.39728540889700853,0.3285536742742573,0.8317663594461122,0.3719782902166339
0.39044247434900664,0.32223724024054096,0.8181332070506533,0.36382491399645334
0.3837269808649409,0.31625548706685774,0.8047544730554506,0.3558386359767282
0.37713650918604164,0.31038801657846465,0.7916252923771756,0.34809670389953945
0.3706686864310353,0.30463262494354176,0.7787408936689968,0.34599920271647144
0.3643211851964249,0.2989871514030637,0.7660965974994964,0.3440228802534055
0.35809172267460115,0.2934494774061081,0.7536878145675512,0.3421609395901387
0.35197805978941626,0.2880175257634629,0.741510043952432,0.3404069526972721
0.34597800034886017,0.2826892598191086,0.7295588713984154,0.33875484068249817
0.3400893902144863,0.2774626826391599,0.7178299676331961,0.3371988550894332
0.3343101164872436,0.27233583621786445,0.7063190867194142,0.33573356019301415
0.3286381067093773,0.2673068007002641,0.6950220644386305,0.3343538162384488
0.32307132808206945,0.26237369362113755,0.6839348167070813,0.3330547635735336
0.3176077866984966,0.25753466915985207,0.6730533380225798,0.33183180762681463
0.3122455267919911,0.25278791741076095,0.6623736999419252,0.3320810178843433
0.3069826299989959,0.2481316636687943,0.6518920495882081,0.3329804638154492
0.30181721463651345,0.2435641677298997,0.6416046081874074,0.3338229274546578
0.29674743499375206,0.23908372320599608,0.6315076696336877,0.3346114496314324
0.29177148063768327,0.2346886568541165,0.6215975990828184,0.33534890984083654
0.2868875757322261,0.2303773279194205,0.6118708315731529,0.33603803480840755
0.2820939783707841,0.22614812749176644,0.6023238706736074,0.3366814066001378
0.2773889799218628,0.2219994778755418,0.5929532871581056,0.3372814703017333
0.27277090438750584,0.2179298319724567,0.5837557177059503,0.33784054129001917
0.2682381077742888,0.21393767267701508,0.5747278636276092,0.3383608121181704
0.2637889774766194,0.2100215122843811,0.5658664896154031,0.33884435903527255
0.25942193167209465,0.20617989191036995,0.5571684225186002,0.3392931481596416
0.2551354187286745,0.20241138092329697,0.5486305501424278,0.33970904132429625
0.2509279166234329,0.1987145763874239,0.540249820070523,0.340093801611993
0.246797932372655,0.19508810251775083,0.5320232385103625,0.34044909859632266
0.2427440014730527,0.1915306101459056,0.5239478691612014,0.34077651330447434
0.23876468735387654,0.18804077619689125,0.5160208321040864,0.3410775429164563
0.2348585808397052,0.18461730317645436,0.5082393027134942,0.341353605214772
0.2310242996237,0.18125891866884664,0.5006005105901714,0.3416060427978067
0.2272604877511155,0.17796437484475497,0.4931017385147538,0.34183612706947586
0.22356581511286117,0.1747324479791818,0.4857403214217513,0.34204506201702
0.21993897694891487,0.17156193797906155,0.47851364539349706,0.3422339877881996
0.21637869336139126,0.16845166792040694,0.47141914667366436,0.3424039840785442
0.21288370883707347,0.16540048359477916,0.46445431069996523,0.34255607333874727
0.20945279177922058,0.16240725306488574,0.45761667115564864,0.3426912238117573
0.20608473404846603,0.1594708662291105,0.4509038090394317,0.3428103524086148
0.20277835051262724,0.15659023439478764,0.4443133517534945,0.3429143274315929
0.19953247860524978,0.15376428986003415,0.43784297220918655,0.3430039711527638
0.1963459778927132,0.15099198550395992,0.4314903879500933,0.34308006225565835
0.19321772964972916,0.14827229438507977,0.4252533602921209,0.34314333814729736
0.19014663644306595,0.14560420934775492,0.4191296934802655,0.34319449714747796
0.18713162172333722,0.14298674263649397,0.41311723386173616,0.34323420056183296
0.18417162942469548,0.1404189255179517,0.40721386907511237,0.3432630746448392
0.1812656235722746,0.13789980791046214,0.40141752725521984,0.34328171245861727
0.1784125878972289,0.13542845802095033,0.39572617625341455,0.34329067563305826
0.17561152545921874,0.13300396198906833,0.3901378228729755,0.34329049603251727
0.17286145827619653,0.13062542353840695,0.38465051211930823,0.34328167733404047
0.1701614269613496,0.12829196363463352,0.3792623264646642,0.34326469652181457
0.1675104903670589,0.12600272015041586,0.37397138512710293,0.34324000530229914
0.16490772523573627,0.12375684753698862,0.36877584336340363,0.3432080314442456
0.16235222585740502,0.12155351650222906,0.3636738917756639,0.343169180047597
0.15984310373389146,0.11939191369510299,0.3586637556313137,0.34312383474504216
0.15737948724949813,0.11727124139635497,0.3537436941962804,0.34307235883980347
0.15496052134803165,0.11519071721531121,0.3489120000810524,0.34301509638304284
0.15258536721606045,0.11314957379267093,0.3441669985993838,0.3429523731940918
0.15025320197228098,0.11114705850916357,0.33970363394744774,0.34288449782654484
0.14796321836287277,0.1091824331999523,0.3354286737754182,0.34281176248308676
0.145714624462725,0.10725497387466548,0.3312337049004008,0.3427344438817802
0.14350664338242047,0.10536397044294249,0.32711711541449073,0.34265280407638776
0.14133851298086392,0.10350872644538062,0.32307732618588436,0.3425670912331714
0.13920948558344498,0.10168855878977473,0.31911279019384176,0.34247754036647915
0.13711882770562778,0.09990279749254,0.3152219918771164,0.3423843740353072
0.1350658197818612,0.09815078542521521,0.3114034464955675,0.3422878030029113
0.13304975589970616,0.09643187806594172,0.3076556995047064,0.3421880268614259
0.13106994353907864,0.09474544325581807,0.3039773259428913,0.3420852346233533
0.1291257033165083,0.09309086096003244,0.3003669298309446,0.3419796052816767
0.12721636873431555,0.09146752303367606,0.2968231435839024,0.3418713083402686
0.1253412859346112,0.08987483299214222,0.2933446274346849,0.3417605043161651
0.12349981345802494,0.08831220578602078,0.2899300688694322,0.341647345215207
0.12169132200707097,0.08677906758039616,0.2865781820742568,0.3415319749824559
0.11991519421406019,0.08527485553845987,0.2832877073932092,0.3414145299287249
0.11817082441347115,0.08379901760935343,0.2800574107972029,0.34129513913449516
0.11645761841869318,0.08235101232015457,0.2768860833636957,0.34117392483241804
0.11477499330305638,0.08093030857192457,0.27377254076689717,0.34105100276953326
0.11312237718506607,0.07953638543973546,0.27071562277829475,0.340926482550291
0.11149920901775948,0.07816873197659863,0.26771419277729236,0.34080046796138586
0.10990493838210513,0.0768268470212144,0.2647671372717484,0.34067305727937647
0.10833902528436673,0.07551023900946924,0.26187336542822326,0.34054434356199426
0.10680093995735435,0.07421842578960386,0.25903180861173203,0.3404144149240247
0.10529016266548791,0.07295093444098028,0.2562414199348144,0.3402833547985553
0.10380618351359941,0.07170730109637619,0.25350117381572823,0.34015124218439063
0.10234850225940086,0.07048707076773558,0.25081006554558893,0.3400181518803519
0.10091662812954776,0.06928979717530787,0.248167110864274,0.33988415470716715
0.0995100796392282,0.06811504258010853,0.24557134554490512,0.3397493177176023
0.09812838441520946,0.06696237761963458,0.24302182498674596,0.339613704395465
0.09677107902227541,0.06583138114677117,0.24051762381634223,0.3394773748440648
0.09543770879298907,0.06472164007182485,0.23805783549673398,0.33934038596469684
0.0941278276607162,0.06363274920762402,0.23564157194458102,0.3392027916256656
0.092840997995847,0.062564311117624,0.23326796315503762,0.33906464282236826
0.09157679044515393,0.061515935966957425,0.23093615683422897,0.3389259878288937
0.09033478377422557,0.06048724137637246,0.22864531803915944,0.3387868723416021
0.08911456471291665,0.05947785227900321,0.22639462882492123,0.3386473396151001
0.08791572780375656,0.05848740077991271,0.22418328789904352,0.3385074305910202
0.08673787525325892,0.0575155260183588,0.2220105102828389,0.3383671840199858
0.08558061678607656,0.056561874032724335,0.21987552697961354,0.3382266365771216
0.08444356950194688,0.055626097628063975,0.21777758464958819,0.33808582297145173
0.08332635773537389,0.054707856246212605,0.2157159452914219,0.3379447760495099
0.08222861291799424,0.053806815838406574,0.21368988593016014,0.3378035268934714
0.08114997344357555,0.052922648740368616,0.21169869831152877,0.33766210491409177
0.08009008453559621,0.05205503354980773,0.20974168860240638,0.3375205379387337
0.07904859811735725,0.05120365500628571,0.20781817709736838,0.33737885229473497
0.07802517268457718,0.050368203873406736,0.20592749793118093,0.3372370728883751
0.07701947318042235,0.04954837682328078,0.20406899879711227,0.33709522327966224
0.07603117087292578,0.04874387632321947,0.2022420406709624,0.3369533257531705
0.07505994323474853,0.04795441052461907,0.20044599754067383,0.3368114013851323
0.07410547382523872,0.047179693153988234,0.19868025614143203,0.3366694701069878
0.07316745217474373,0.046419443406078675,0.19694421569613052,0.3365275507655747
0.07224557367113271,0.045673385839077485,0.19523728766109394,0.3363856611801417
0.07133953944848637,0.04494125027182122,0.1935588954769627,0.33624381819634763
0.07044905627791287,0.044222771682991546,0.19190847432462,0.33610203773741454
0.06957383646044879,0.04351769011225476,0.1902854708860715,0.3359603348525738
0.06871359772200498,0.042825750563306675,0.18868934311017727,0.33581872376296185
0.06786806311031836,0.04214670290878547,0.18711955998312368,0.33567721790508975
0.06703696089387076,0.04148030179701717,0.18557560130355744,0.33553582997202
0.06622002446273743,0.04082630656055658,0.1840569574622819,0.3353945719523729
0.0654169922313278,0.0401844811264902,0.18256312922641427,0.33525345516727423
0.06462760754298248,0.039554593928465775,0.1810936275279278,0.33511249030535606
0.06385161857639073,0.038936417820415514,0.17964797325647952,0.334971687455911
0.06308877825379347,0.03832972999193962,0.17822569705644375,0.33483105614030007
0.06233884415093764,0.037734311885317895,0.17682633912806156,0.33469060534170647
0.06160157840874835,0.037149949114118785,0.17544944903262594,0.33455034353332036
0.06087674764668569,0.03657643138337269,0.17409458550162404,0.3344102787050405
0.06016412287775415,0.03601355241128151,0.1727613162497441,0.33427041838876814
0.059463479425132824,0.03546110985243356,0.17144921779168731,0.33413076968237365
0.05877459684039531,0.034918905222493635,0.17015787526269532,0.33399133927239655
0.05809725882328898,0.0343867438243422,0.16888688224271586,0.3338521334555562
0.05743125314304356,0.03386443467563244,0.1676358405841467,0.33371315815912606
0.056776371561179845,0.03335179043774089,0.16640436024307048,0.333574418960243
0.0561324097557898,0.03284862734608168,0.16519205911392243,0.33343592110419507
0.05549916724725981,0.03235476514176028,0.16399856286750913,0.33329766952175377
0.05487644732540945,0.0318700270045395,0.162823504792325,0.333159668845592
0.054264056978018754,0.03139423948709291,0.16166652563908324,0.333021923425842
0.053661806820717264,0.03092723245052026,0.1605272734684171,0.3328844373448354
0.0530695110282089,0.030468839001101367,0.15940540350166055,0.3327472144310706
0.052486987266807034,0.030018895428263526,0.15830057797467467,0.33261025827244695
0.05191405662825468,0.029577241143739275,0.15721246599463523,0.3324735722288046
0.051350543564805264,0.0291437186218923,0.15614074339973683,0.3323371594438065
0.05079627582553976,0.02871817334118787,0.15508509262174353,0.3322010228562017
0.050251084393896674,0.028300453726785635,0.15404520255133702,0.332065165210491
0.04971480342639145,0.02791131993855317,0.1530207684062026,0.3319295890670425
0.04918727019250291,0.027565630189043566,0.1520114916017956,0.3317942968116717
0.04866832501570394,0.027226807329390035,0.15101707962473387,0.33165929066472233
0.04815781121561501,0.026894709734864797,0.1500372459087691,0.3315245726896744
0.047655575051258676,0.026569198677295514,0.14907170971327655,0.331390144801298
0.04716146566539428,0.026250138266313894,0.14812019600422488,0.33125600877338535
0.046675335029912036,0.02593739539179346,0.14718243533755215,0.3311221662460748
0.046197037892266334,0.02563083966744578,0.1462581637449305,0.33098861873279783
0.04572643172292837,0.025330343375554953,0.1453471226218459,0.3308553676268573
0.045263376663838645,0.025035781412825253,0.14444905861795831,0.3307224142076681
0.04480773547784017,0.02474703123732319,0.14356372352969204,0.3305897596466698
0.044359373499073734,0.024463972816486934,0.14269087419501525,0.3304574050129312
0.043918158584316774,0.024186488576187604,0.14183027239035573,0.3303253512784643
0.043483961065247816,0.023914463350814874,0.14098168472962413,0.330193599323261
0.0430566537016189,0.023647784334372368,0.1401448825652838,0.3300621499400679
0.04263611163531856,0.023386341032557878,0.1393196418914433,0.32993100383891316
0.04222221234530836,0.023130025215811367,0.13850574324891252,0.3298001616513966
0.04181483560341635,0.022878730873310493,0.13770297163220802,0.32966962393476185
0.04141386343097109,0.02263235416789422,0.136911116398436,0.32953939117574993
0.04101918005626004,0.02239079339189698,0.1361299711780426,0.3294094637942605
0.04063067187279685,0.022153948923872402,0.1353593337873793,0.3292798421468168
0.04024822739838185,0.021921723186193565,0.13459900614304998,0.3291505265298573
0.039871737234940766,0.021694020603506947,0.13384879417800377,0.32902151718285055
0.03950109402912671,0.02147074756202605,0.13310850775933702,0.32889281429125683
0.03913619243367097,0.021251812369647072,0.13237796060777374,0.32876441798932887
0.038776929069468204,0.021037125216869734,0.13165697021878753,0.3286363283627727
0.038423202488382165,0.020826598138508567,0.13094535778532523,0.32850854545126984
0.03807491313675805,0.020620144976174648,0.13024294812211523,0.32838106925087085
0.03773196331962814,0.020417681341519445,0.12954956959151676,0.32825389971626373
0.037394257165597355,0.02021912458021724,0.12886505403087822,0.3281270367629251
