jointMR1,jointMR2,jointMR3,force
6.17588074261495,5.631924498583335,7.66158500032732,6.150612083702547
5.8373161012280965,5.319820308566819,7.235007882233452,5.808374831838949
5.516728531939424,5.024534003674381,6.831183982961204,5.484624140804077
5.213173739997988,4.7451674248380185,6.448916433684757,5.17837171731477
4.925756841315602,4.4808702280512325,6.087071019767944,4.888681903467577
4.6536297807040645,4.230837341813512,5.744572906594188,4.614668877416801
4.395988884939955,3.9943065597135465,5.420403536388848,4.355494002846702
4.152072543617359,3.770556260969773,5.116604885847618,4.110363319330742
3.9211590111163748,3.558903252128488,4.830209508908894,3.878525166090885
3.7025643233636427,3.3587007234810895,4.559134398897552,3.659267932067872
3.4956403233912363,3.169336314104055,4.302572182458196,3.4519179255899313
3.2997727900132205,2.9902302797492992,4.059757798469674,3.2558373572842036
3.114379664235733,2.8208337581192033,3.8299662854995398,3.0704224302128345
2.938909368297547,2.6782750310602492,3.612510684847006,2.8951015315354063
2.772839212504526,2.552349533217063,3.4067400531381864,2.729333520302274
2.615673885273833,2.4321937125653417,3.2120375787526165,2.5726061062699963
2.466944022043167,2.31754682174974,3.027818796658731,2.424434314901531
2.326204848927048,2.2081598272051477,2.853529896519082,2.28642175052867
2.1930348972172538,2.103794884293305,2.7355589374486606,2.1563573404686713
2.0670347850282162,2.0042248359306605,2.675734523253689,2.033287789178153
1.9478260625813264,1.9092327336565733,2.61715390497789,1.9168439338319372
1.8350501178051934,1.8186113801379336,2.559790933483039,1.841905247471533
1.7283671391023216,1.7321628921512224,2.5036200383573193,1.7867092228329937
1.6274551322971682,1.6496982831258955,2.448616213525308,1.7337615348463815
1.5539764865553936,1.571037064373969,2.3947550032925404,1.6829648759083733
1.5210541832805249,1.496006864169818,2.346385043179443,1.6342262381895112
1.488811741481675,1.424443063881611,2.2991787169690854,1.5874567221402398
1.4572349016041386,1.3561884503915,2.2529677190917696,1.5425713535523264
1.426309720055309,1.2910928840758222,2.2077290332220745,1.4994889087928818
1.3960225612975432,1.2290129816491728,2.163440276928548,1.4581317478453548
1.3663600901825959,1.1698118132073292,2.1200796796931334,1.4184256548082246
1.3373092645184106,1.1133586128337638,2.0776260618609212,1.3802996855177576
1.3088573278594582,1.0595285021629026,2.0360588144759064,1.343686021976149
1.280991802512237,1.0082022263204173,1.9953578799606244,1.308519833280621
1.2537004827478817,0.9652203542268025,1.9555037335997052,1.2747391427626802
1.2269714282142148,0.9456397665164931,1.9164773657893528,1.2422847010597702
1.2007929575399077,0.9264575916656539,1.8782602650166866,1.2110998648539748
1.17515364212373,0.9076655758892356,1.8408344015346778,1.1811304810243084
1.1500423001021804,0.889255645091733,1.804182211700131,1.1523247759704927
1.1254479904890828,0.8712199004956043,1.768286582943787,1.1246332498769283
1.1013600074810184,0.8535506143984524,1.7331308393431661,1.0980085756959528
1.0777678749226998,0.8362402260542048,1.6986987277702346,1.0724055026393435
1.0546613409266865,0.8192813376737604,1.664974404587362,1.0477807639764767
1.032030372642043,0.8029079518192881,1.6319424228663628,1.0240929889465875
1.0098651511667964,0.7873966578118914,1.5995877201066542,1.0013026186011706
0.9881560665992422,0.7721855423649429,1.5678956064297591,0.9793718254008238
0.9668937132233852,0.7572687191351195,1.5368517532285013,0.9582644363986719
0.9460688848239658,0.742640420735776,1.5098403525903916,0.9379458598500449
0.925672570126739,0.7282949961829699,1.483528836543329,0.9183830150952373
0.9056959483598286,0.7142269084025346,1.457713888716321,0.8995442655690561
0.8861303849321702,0.7004307317964967,1.4323859694504275,0.8813993547973785
0.8669674272252037,0.6869011498671882,1.4075357244089608,0.8639193452472295
0.8481988004941396,0.6736329528974601,1.3831539809102447,0.8470765599028395
0.8298164038752669,0.6606210356854577,1.3592317443356938,0.8308445264458529
0.811812306495914,0.6478603953324649,1.3357601946115496,0.8151979239233195
0.7941787436838085,0.6353461290823739,1.312730682762651,0.8001125317922972
0.7769081132727075,0.6230734322113849,1.2901347275366595,0.7855651812348715
0.7599929720012948,0.6110375959665841,1.2679640120971976,0.771533708642147
0.7434260320024573,0.5992340055520915,1.2462103807843934,0.7579969111703108
0.7272001573801647,0.587658138161509,1.2248658359413682,0.7449345042761909
0.7113083608712831,0.5763055610554465,1.2039225348052316,0.7323270811438887
0.6957438005897536,0.5651719296829324,1.1833727864611912,0.7201560739180043
0.6804997768506656,0.5542529858455607,1.1632090488584113,0.7084037166627674
0.6655697290718495,0.5435445559032582,1.143423925886292,0.697053009969982
0.6509472327506926,0.5330425490205883,1.1240101645098708,0.6860876871421551
0.6366259965139818,0.5227429554525483,1.1049606519630797,0.6754921818804562
0.6225998592386423,0.512641844868839,1.086268412998618,0.6652515974103207
0.6095649829973134,0.5027353647156261,1.067926607193237,0.6553516769804961
0.5991219119362319,0.4930197386138364,1.0499285263072575,0.6457787756742142
0.5888731258331059,0.4834912647930609,1.0322675916971649,0.6365198334739065
0.5788149334108097,0.47414631456017053,1.0149373517801594,0.6275623495235099
0.5689437143623042,0.4649813308017676,0.9979314795495664,0.6188943575348941
0.5592559179642592,0.45599282651963,0.9812437701400283,0.6105044022873548
0.5497480617185687,0.4471773833983279,0.9648681384414345,0.6023815171713826
0.5404167300211633,0.43853165040421205,0.948798616760564,0.5945152027301048
0.5312585728575421,0.43005234241500423,0.9330293525294405,0.5868954061538838
0.522270304524456,0.42173623887923517,0.9175546060594238,0.5795125016855418
0.5134487023771892,0.41358018250480266,0.9023687483400807,0.5723572718955848
0.5047906056018995,0.40558107797593945,0.8874662588819036,0.5654208897886108
0.49629291401248765,0.39773589069790305,0.8728417236019641,0.5586949017038333
0.4879525868714836,0.39004164556871845,0.858489832751611,0.552171210974293
0.4797666417344414,0.3824954257773243,0.8444053788853386,0.5458420623109251
0.47173215331735496,0.3750943716274888,0.8305832548699779,0.5397000268791596
0.4638462523866107,0.3678356793868831,0.8170184519333726,0.5337379880371721
0.4561061246710091,0.3607166001607145,0.8037060577517301,0.5279491277062872
0.4485090097953948,0.3537344387893384,0.7906412545748487,0.5223269133453554
0.44105220023544706,0.34688655276928393,0.7778193173884438,0.5168650855021795
0.4337330402931916,0.3401703511971461,0.7652356121128099,0.5115576459162703
0.42654892509280534,0.33358329373580753,0.7528855938370775,0.5063988461483663
0.41949729959629445,0.32712288960247227,0.7407648050883322,0.5013831767132431
0.41257565763863624,0.3207866965780036,0.7288688741348863,0.49650535669338663
0.4057815409819836,0.3145723200370767,0.7171935133230076,0.491760323812114
0.3991125383885416,0.3084774119986631,0.7057345174464191,0.4871432249456729
0.39256628471173116,0.30249967019638446,0.6944877621479086,0.4826494070547713
0.38614046000526675,0.29663683716827816,0.683449202352391,0.47827440851685876
0.3798327886497812,0.2908866993655357,0.67261487073079,0.4740139508413178
0.37364103849663893,0.2852470862797797,0.6619808761941077,0.46986393075051675
0.36756302002858765,0.27971586958846373,0.6515434024170805,0.465820412610442
0.361596585536905,0.27429096231798367,0.6412987063908144,0.4618796211953496
0.35573962831470585,0.268970318024104,0.6312431170038209,0.4580379347715733
0.3499900818660805,0.2637519299893102,0.6213730336508769,0.45429187848629
0.3443459191307444,0.2586338304367102,0.6116849248691512,0.45063811804767817
0.3388051517238845,0.25361408976011623,0.6021753270010468,0.44707345368350626
0.33336582919089425,0.2486908157699472,0.5928408428832226,0.44359481436577214
0.32802603827669863,0.24386215295460265,0.583678140561271,0.44019925228956425
0.32278390220937236,0.23912628175696624,0.5746839520295335,0.4368839375948419
0.3176375799977651,0.23448141786570695,0.5658550719955533,0.4336461533203418
0.3125852657428514,0.22992581152105193,0.5571883566686711,0.4304832905792913
0.30762518796252897,0.225457746834716,0.5486807225722818,0.4273928439470774
0.30275560892959597,0.2210755411236783,0.5403291453792785,0.42437240705145624
0.29797482402264286,0.2167775442575047,0.5321306587702208,0.4214196683563064
0.29328116108959995,0.21256213801892296,0.5240823533137786,0.41853240713033507
0.28867297982368756,0.208427735477363,0.516181375369001,0.41570848959252343
0.284148671151521,0.20437278037518355,0.5084249260089815,0.41294586522647275
0.2797066566331272,0.20039574652631073,0.5008102599654902,0.41024256325615066
0.27534538787363644,0.1964951372270233,0.4933346845941613,0.40759668927588105
0.271063345946415,0.1926694846786242,0.48599555885982126,0.405006422027738
0.26685904082741246,0.18891734942174357,0.478790292341565,0.40247001031980484
0.26273101084049977,0.18523731978202615,0.4717163442571828,0.39998577007905645
0.25867782211357954,0.18162801132696096,0.46477122250655967,0.39755208153289684
0.2546980680452556,0.17808806633361637,0.45795248273366806,0.39516738651365424
0.2507903687818514,0.17461615326704974,0.4512577274067884,0.39283018588058466
0.24695337070457307,0.1712109662691664,0.4446846049165962,0.3905390370541838
0.24318574592661496,0.16787122465780766,0.43823080869176345,0.3882925516578324
0.23948619180001268,0.16459567243585202,0.4318940763317298,0.3860893932620283
0.23585343043204957,0.16138307781012076,0.42567218875630064,0.3839282752266633
0.2322862082110284,0.15823223271988093,0.4195629693717473,0.3818079586370114
0.22878329534122355,0.1551419523747459,0.4135642832530779,0.379727250329284
0.22534348538683246,0.15211107480177763,0.40767403634216515,0.3776850010017916
0.2219655948247489,0.14913846040159792,0.4018901746614165,0.375680103407934
0.2186484626059847,0.14622299151332277,0.39621068354268263,0.3737114906273994
0.21539094972556921,0.14336357198813524,0.3906335868711024,0.3717781344121231
0.21219193880076034,0.14055912677131918,0.3851569463435969,0.369879043603705
0.20905033365740325,0.13780860149257804,0.3797788607417172,0.36801326261913253
0.20596505892427722,0.13511096206446796,0.3744974652185702,0.3661798700017973
0.20293505963527358,0.13246519428877798,0.3693109305995439,0.3643779770349268
0.19995930083925123,0.12987030347069387,0.3642174626965631,0.3626067264146807
0.19703676721741908,0.12732531404058559,0.35921530163560944,0.3608652909802826
0.19416646270809845,0.12482926918326195,0.35430272119724626,0.35915287249867806
0.1913474101387201,0.12238123047453983,0.3494780281698968,0.3574687005013174
0.18857865086491515,0.11998027752497817,0.3447395617156179,0.3558120311707704
0.18585924441656104,0.11762550763063043,0.34008569274813905,0.3541821462749828
0.18318826815064562,0.11531603543067295,0.3355148233229117,0.3525783521470799
0.18056481691081794,0.11305099257176818,0.3310253860389454,0.3509999787087166
0.17798800269349338,0.11082952737902688,0.3266158434521971,0.34944637853506294
0.1754569543203866,0.10865080453343509,0.32228468750028516,0.3479169259595953
0.17297081711734602,0.10651400475561432,0.3180304389383133,0.3464110162169517
0.17052875259936762,0.10441832449578689,0.31385164678558275,0.34492806462217906
0.16812993816166724,0.10236297562982208,0.30974688778298165,0.3434675057847793
0.16577356677669364,0.10034718516123806,0.30571476586084834,0.34202879285603044
0.16345884669696645,0.0983701949290414,0.30175391161709375,0.3406113968081283
0.16118500116362608,0.09643126132128563,0.2978629818053984,0.3392148057437534
0.1589512681205839,0.09452965499423457,0.2940406588332716,0.3378385242347368
0.15675689993416447,0.09266466059701581,0.2902856502697946,0.3364820726885537
0.15460116311813257,0.09083557650165694,0.2865966883628521,0.33514498674142734
0.15248333806400072,0.08904171453839424,0.28297252956566954,0.3338268166768854
0.15040271877651468,0.08728239973614935,0.2794119540724731,0.332527126868658
0.14835861261421635,0.08555697006806998,0.27591376536310186,0.33124549524685803
0.14635034003498554,0.08386477620203389,0.27247678975638956,0.32998151278642934
0.14437723434646402,0.0822051812560167,0.2690998759721517,0.32873478301689496
0.1424386414612676,0.08057756055822593,0.26578189470160996,0.3275049215524795
0.14053391965689294,0.07898130141190815,0.26252173818608715,0.3262915556417211
0.13866243934022823,0.07741580286473335,0.25931831980381737,0.32509432373572705
0.13682358281657914,0.07588047548266805,0.25617057366470797,0.3239128750742664
0.13501674406312184,0.0743747411282463,0.25307745421290595,0.3227468692889225
0.13324132850669806,0.07289803274315218,0.25003793583701106,0.3215959760225739
0.13149675280586784,0.07144979413502725,0.2470510124877927,0.32045987456449054
0.12978244463713778,0.07002947976842053,0.24411569730326121,0.31933825350037726
0.12809784248528416,0.06863655455979714,0.24123102224095372,0.3182308103767135
0.12644239543769137,0.0672704936765273,0.23839603771729379,0.31713725137877774
0.12481556298262886,0.06593078233977542,0.235609812253889,0.31605729102176466
0.12321681481138963,0.06461691563121261,0.23287143213063088,0.3149906518544314
0.1216456306242164,0.06332839830347733,0.2301800010454642,0.31393706417473694
0.12010149993994218,0.06206474459431041,0.22753463978070232,0.3128962657569557
0.11858392190927303,0.06082547804429114,0.2249344858757567,0.31186800158977873
0.11709240513164393,0.05961013131810419,0.2223786933061549,0.31085202362492553
0.11562646747557737,0.05841824602926762,0.21986643216873492,0.309848090535822
0.11418563590247857,0.05724937256825377,0.21739688837288385,0.3088559674859113
0.11276944629379976,0.05610306993393663,0.21496926333771627,0.30787542590618805
0.11137744328150972,0.054978905568299846,0.21258277369506673,0.3069062432815615
0.11000918008180433,0.05387645519434134,0.210236650998193,0.30594820294567343
0.10866421833199552,0.05279530265711249,0.20793014143607458,0.305001093883808
0.10734212793051803,0.051735039767829644,0.20566250555319932,0.3040647105435554
0.10604248687999346,0.050695266150997925,0.2034330179747339,0.3031388526528955
0.10476488113329291,0.049675589094487965,0.20124096713697148,0.30222332504538885
0.10350890444254071,0.04867562340250928,0.19908565502295827,0.3013179374921767
0.10227415821100216,0.04769499125142104,0.19696639690319606,0.30042250454049946
0.1010602513478005,0.046733322048327114,0.19488252108132365,0.299536845358461
0.09986680012540802,0.045790252292399386,0.19283336864468192,0.29866078358577536
0.09869342803985853,0.04486542543887681,0.19081829321966715,0.2977941471902438
0.09753976567362838,0.043958491765688085,0.18883666073178285,0.29693676832972443
0.09640545056113548,0.04306910824264562,0.18688784917029433,0.2960884832193595
0.09529012705680481,0.042196938403161716,0.18497124835740397,0.29524913200384734
0.09419344620565273,0.041524761963400214,0.18308625972185433,0.29441855863454164
0.09311506561634014,0.04097340861673149,0.18123229607687708,0.29359661075118226
0.09205464933664817,0.040431099076184696,0.17940878140240302,0.292783139568063
0.0910118677313293,0.039897672875318146,0.17761515063145183,0.2919779997644511
0.0899863973622888,0.03937297262883971,0.17585084944061768,0.29118104937908473
0.08897792087105119,0.03885684396388611,0.17411533404457846,0.29039214970857863
0.0879861268634683,0.03834913545322571,0.17240807099454414,0.28961116520957775
0.08701070979662592,0.03784969855032072,0.1707285369805729,0.28883796340450135
0.08605136986790657,0.03735838752618048,0.16907621863767863,0.2880724147907382
0.08510781290616726,0.03687505940794522,0.16745061235565717,0.2873143927531395
0.08417975026499191,0.03639957391914134,0.1658512240925607,0.2865637734796867
0.08326689871797796,0.03593179342154812,0.1642775691917484,0.2858204358801955
0.08236898035601892,0.03547158285862634,0.16272917220244598,0.28508426150794064
0.08148572248654432,0.03501880970044846,0.1612055667037462,0.2843551344840739
0.08061685753467926,0.034573343890086206,0.1597062951319823,0.28363294142473167
0.07976212294628746,0.034135057791405465,0.15823090861141398,0.2829175713707152
0.07892126109286093,0.03370382613821776,0.1567789667881565,0.2822089157196472
0.07809401917822165,0.03327952598474854,0.15535003766729671,0.28150686816049775
0.07728014914699985,0.03286203665737647,0.15394369745312786,0.2808113246103928
0.07647940759485555,0.03245123970760261,0.15255953039244896,0.28012218315360776
0.07569155568040944,0.03204701886621031,0.15119712862086732,0.27943934398266074
0.07491635903885077,0.03164925999857604,0.14985609201204686,0.2787627093414243
0.07415358769718969,0.031257851061095965,0.14853602802984578,0.27809218347017384
0.07340301599112325,0.030872682058692424,0.14723655158328608,0.27742767255249595
0.07266442248348359,0.030493645003364878,0.14595728488430493,0.2767690846639842
0.07193758988423815,0.030120633873755687,0.14469785730823004,0.27611632972265265
0.07122230497201262,0.02975354457569468,0.14345790525692892,0.27546931944099967
0.07051835851710686,0.02939227490369689,0.14223707202457958,0.2748279672796554
0.069825545205976,0.029036724503380962,0.14103500766601407,0.27419218840255744
0.06914366356714785,0.028686794834781926,0.1398513688675831,0.2735618996335872
0.06847251589854988,0.028342389136530255,0.1386858188204949,0.2729370194146183
0.06781190819621852,0.02800341239087173,0.13753802709658025,0.2723174677649179
0.06716165008436425,0.027669771289503098,0.1364076695264378,0.2717031662418515
0.06652155474676685,0.02734137420019911,0.1352944280799122,0.27109403790283954
0.06589143885947513,0.02701813113420759,0.13419799074886196,0.2704900072685213
0.06527112252478637,0.026699953714390934,0.13311805143217348,0.26989100028707597
0.06466042920648105,0.026386755144090224,0.1320543098229756,0.269296944299663
0.06405918566628865,0.02607845017669541,0.13100647129801435,0.26870776800693225
0.0634672219015614,0.025774955085895668,0.12997424680914782,0.2681234014365729
0.06288437108413236,0.025476187636596037,0.12895735277691545,0.2675437759118535
0.062310469500335974,0.025362348210451302,0.12795551098614877,0.26696882402112276
0.061745356492167947,0.025283501454136215,0.1269684484835778,0.2663984795882333
0.0611888743995638,0.025205661389771872,0.1259958974773998,0.2658326776438532
0.06064086850377362,0.025128812946269008,0.12503759523877034,0.265271354397636
0.06010118697181294,0.025052941296564157,0.12409328400517894,0.2647144472112144
0.05956968080196878,0.02497803185182973,0.12316271088567654,0.2641618945719898
0.059046203770340866,0.024904070255935662,0.12224562776791514,0.2636136360676892
0.0585306123783981,0.024831042380149104,0.12134179122696831,0.2630696123616603
0.05802276580153132,0.024758934318057646,0.1204509624358967,0.2625297651688801
0.05752252583858275,0.02468773238070404,0.11957290707802315,0.2619940372326499
0.057029756862334025,0.024617423091920165,0.11870739526089058,0.26146237230195396
0.0565443257709341,0.02454799318384926,0.11785420143186376,0.26093471510945737
0.056066101940249746,0.024479429592645152,0.11701310429534595,0.2604110113501221
0.05559495717711993,0.024411719454340397,0.1161838867315832,0.2598912076604173
0.05513076567349831,0.02434485010087084,0.11536633571701738,0.25937525159810465
0.05467340396146542,0.024278809056250017,0.11456024224616734,0.258863091622581
0.05422275086909506,0.02421358403288637,0.11376540125500356,0.25835467707575355
0.05377868747715836,0.02414916292803071,0.11298161154578712,0.2578499581634372
0.05334109707664891,0.02408553382035139,0.11220867571335047,0.2573488859372474
0.05290986512711421,0.024022684966627905,0.11144640007278395,0.25685141227698044
0.05248487921577755,0.023960604798556495,0.1106945945885105,0.2563574898734582
0.052066029017435345,0.023899281919662452,0.10995307280471311,0.25586707221182575
0.051653206255115214,0.02383870510231223,0.10922165177709586,0.25538011355528484
0.051246304661480335,0.023778863284820873,0.1085001520059492,0.25489656892925
