jointHR1,jointHR2,jointHR3,force
6.408394323666167,5.523488106943208,7.764222400159392,6.150612083702255
6.0555154617123295,5.221756298022974,7.330442261325732,5.808374831837838
5.721388454318335,4.936252108977183,6.91982249066102,5.484624142945647
5.40502833956445,4.666109117261576,6.531144567927722,5.178371720909334
5.105501688436992,4.41050702834064,6.163253762320906,4.888681905650946
4.821923912371017,4.168669222650339,5.815055798947976,4.614668873731237
4.553456711395413,3.9398604329486453,5.485513699400561,4.355493987750787
4.29930565553936,3.7233845451247536,5.173644787328878,4.110363286644351
4.058717892542541,3.518582515906089,4.878517850403377,3.8785251093809854
3.8309799752745883,3.324830401250724,4.599250450498324,3.6592678449804255
3.6154158026136014,3.141537489543121,4.335006374358217,3.4519178021328667
3.411384667859843,2.9681445340234833,4.084993217412008,3.25583719206597
3.218279409070004,2.8041220791770884,3.848460093783011,3.070422218640741
3.0355246559905518,2.6489688760901524,3.624695465905331,2.895101269977668
2.862575168546464,2.5022103820441117,3.413025087501703,2.7688286915481664
2.69891426210504,2.3633973398715016,3.2601344859700125,2.6536391009578346
2.544052314983974,2.2321044328344195,3.135447041484733,2.5437143807354987
2.397525353909441,2.1079290110119007,3.0152735218477256,2.438816863314023
2.258893713354185,1.9904898853957627,2.8994523656183606,2.3387195512303416
2.1277407648980105,1.8939127956630615,2.7878277706457637,2.2432056391785093
2.011226317886188,1.8036874301689174,2.682314158482959,2.1520680574516113
1.9355007166268887,1.7176075994660542,2.582055997568163,2.065109035815671
1.8635957285052844,1.635485828678862,2.485371418376989,1.9821396869015209
1.7959623575988224,1.557143066693523,2.3921337147444626,1.9029796082414911
1.730761611803191,1.4824083086678597,2.3150627424141863,1.8274565021167852
1.667906450619669,1.411118235438444,2.2691669418670832,1.7554058124187872
1.6073129370242258,1.3431168690689632,2.2243585597105184,1.6866703777631376
1.5489001270088802,1.2782552438176586,2.1806071759431545,1.6211001001294738
1.4925899630515682,1.21639109183393,2.137883337915109,1.5585516283322693
1.4383071713748177,1.1687879018878247,2.0961585268028973,1.4988880556592499
1.3859791628585105,1.1267426028659329,2.0554051253109136,1.4419786310435758
1.3355359374767852,1.08620631348451,2.015596386552978,1.3876984831642951
1.2869099921337717,1.0471251537646689,1.9767064040692819,1.3359283568966924
1.2400362317772982,1.0094471625843628,1.9387100829358093,1.2865543615599957
1.194851883674006,0.9731222294152597,1.9015831119249598,1.2394677304346506
1.151296414733464,0.9381020284873096,1.8653019366777104,1.1945645910449545
1.1093114517728577,0.9043399552946567,1.8298437338491822,1.1517457457254086
1.0688407046177009,0.8717910653596201,1.7951863861909536,1.1109164620106964
1.0422597327701693,0.8404120151744301,1.7613084585348795,1.0719862724097593
1.0248669202250906,0.8101610052432662,1.7281891746445361,1.0348687831441217
1.0079388983002902,0.780997725149897,1.6958083949017173,0.9994814914493798
0.991456826147934,0.7528833005788806,1.6641465947966672,0.9657456110567206
0.9754027849127562,0.7257802422208501,1.6381078093872785,0.933585905488478
0.9597597300930714,0.69965239649487,1.613960718709276,0.9029305288180914
0.9445114463921775,0.6744648980232524,1.590359667689388,0.8737108735604829
0.9296425049298067,0.6501841237964969,1.5672848870584817,0.8458614253738074
0.9151382226900971,0.6267776489682608,1.54471753728147,0.8193196242677973
0.9009846240890168,0.6042142042223777,1.5226396609674928,0.7940257320275615
0.887168404550298,0.5824636346560308,1.501034137764771,0.7699227055747186
0.8736768959847405,0.5614968601251566,1.4798846416100395,0.7469560760001838
0.8604980340732447,0.5412858370000802,1.4591756002092744,0.7250738330148219
0.847620327259142,0.5218035212812351,1.4388921566328823,0.7042263145755198
0.8350328273603425,0.5081825085001667,1.4190201329146244,0.6843661014550866
0.8227251017164814,0.49760296358312495,1.3995459955493565,0.6654479165347411
0.8106872067907074,0.4872765039485457,1.3804568227901464,0.6474285286078565
0.7989096631499373,0.477195735309347,1.3617402736505348,0.6302666604930666
0.7873834317514044,0.4673535297081849,1.3433845585226516,0.6139229012638854
0.7760998914670971,0.4577430142709037,1.325378411326549,0.598359622410616
0.7650508177812609,0.4483575604821035,1.3077110631105708,0.585059620715662
0.7542283625995387,0.43919077395734774,1.2903722170267506,0.5734982601126937
0.743625035111529,0.4302364846877954,1.2733520246092318,0.5621910716151759
0.7332336836515962,0.4214887377342691,1.256641063287453,0.5511313158431888
0.7230474785056508,0.4129417843489106,1.24023031506943,0.5403124818460747
0.7130598956143538,0.4045900735036747,1.224111146333848,0.5297282775285349
0.7032647011257956,0.3964282438059392,1.208275288672887,0.5193726205318888
0.6936559367531567,0.3884511157825069,1.192714820730735,0.5092396295475501
0.6842279058951828,0.38065368451419357,1.1774221509856535,0.49932361604094155
0.6749751604795222,0.3730311126040936,1.1623900014261528,0.4896190763652218
0.665892488491059,0.36557872346345377,1.1476113920744586,0.48012068424523274
0.6569749021493593,0.3582919948998824,1.1330796263128808,0.47082328361311143
0.6482176267012313,0.35116655299338195,1.1187882769710351,0.4617218817779558
0.6396160897961721,0.34419816624641575,1.1047311731340632,0.45281164291283876
0.6311659114141726,0.33738273999489543,1.0909023876340842,0.44408788184333664
0.6228628943169395,0.330716311067635,1.0772962251890985,0.4355460581225418
0.6147030149951201,0.3241950426824298,1.063907211155429,0.42718177037830773
0.6066824150855413,0.31781521956749614,1.0507300808615678,0.41899075091920734
0.5987973932338455,0.3115732432975815,1.0377597694929814,0.4115725062151035
0.5910443973791876,0.30546562783456377,1.0249914024990177,0.40585878776525425
0.5834200174388852,0.2994889952628731,1.0124202864945784,0.40043228703385414
0.5759209783720697,0.29364007171053697,1.0000419006306416,0.3952794731542169
0.5685441336024863,0.2879156834471076,0.9878518884090988,0.3903874333070984
0.5612864587816273,0.28231275315015825,0.975846049918626,0.38574384484026364
0.5541450458743746,0.2768282963324388,0.9640203344695628,0.3813369486393726
0.5471170975502563,0.27145941792217654,0.9523708336068998,0.37715552369414623
0.540199921864311,0.26620330898936684,0.9408937744815933,0.37318886280627384
0.5333909272123927,0.2610572436112567,0.9295855135614444,0.3694267493879263
0.5266876175465406,0.2560185758705462,0.9184425306637781,0.36585943530202036
0.5200875878367969,0.25108473698016176,0.9074614232930835,0.36247761969757253
0.5135885197665657,0.24625323252873943,0.8966389012676574,0.35927242879556315
0.5071881776492853,0.24152163984125197,0.8859717816201352,0.3562353965827295
0.5008844045548244,0.23688760544948173,0.8754569837575871,0.3533584463726145
0.494675118634626,0.23234884266729317,0.8650915248676001,0.35063387319500955
0.48855830963519103,0.2279031292659094,0.8548725155574919,0.3480543269766807
0.4825320355900466,0.223548305244629,0.8447971557144623,0.3456127964779182
0.4765944196808558,0.2192822706926295,0.834862730575145,0.34439433438087963
0.47074364725881973,0.21510298373773007,0.8250666069936098,0.3458579847323452
0.4649779630179827,0.21100845857816897,0.8154062298974558,0.3472220527592573
0.4592956683124967,0.2069967635936546,0.8058791189221666,0.34849151879851836
0.4536951186103126,0.20306601953211356,0.7964828652144302,0.3496711306116672
0.4481747210761657,0.1992143977687446,0.7872151283955948,0.350765413980473
0.4427329322770944,0.19544011863414246,0.7780736336769094,0.3517786828247328
0.4373682560040868,0.19174144980840824,0.769056169118636,0.35271504886372573
0.4320792412037853,0.18811670477831421,0.7601605830255302,0.3535784308418086
0.42686448001450034,0.18456424135473015,0.7513847814715768,0.35437256333772416
0.4217226059010829,0.18108246024764452,0.7427267259472601,0.35510100517631193
0.4166522918834937,0.17766980369625318,0.7341844311229719,0.3557671474604803
0.411652248854177,0.17432475415168946,0.7257559627225287,0.35637422124049134
0.40672122397960564,0.17104583301010512,0.7174394355010549,0.3569253048368536
0.40185799918160364,0.1678315993938977,0.709233011321819,0.3574233308323792
0.3970613896942873,0.16468064897900414,0.7011348973268698,0.35787109274827245
0.392330242692682,0.16159161286626145,0.6931433441966084,0.35827125141844673
0.3876634359892788,0.15856315649493946,0.6852566444936745,0.35862634107562996
0.38305987679499265,0.15559397859663293,0.6774731310867776,0.3589387751622133
0.3785185005411683,0.15268281018779073,0.6697911756503294,0.3592108518782152
0.37403826975945764,0.14982841359923105,0.6622091872359466,0.35944475947818033
0.3696181730165568,0.1470295815410806,0.6547256109121113,0.3596425813282995
0.3652572239009536,0.14428513620163486,0.6473389264684575,0.359806300734536
0.36095446005897924,0.14159392837871354,0.6400476471813521,0.359937805552056
0.3567089422776081,0.13895483664215402,0.6328503186375978,0.3600388925857987
0.35251975361157745,0.13636676652613744,0.6257455176132694,0.360111271791586
0.3483859985525288,0.133828649750111,0.6187318510048365,0.36015657028674297
0.3443068022379947,0.13133944346712434,0.6118079548098851,0.36017633617880507
0.34028130969816694,0.12889812953844926,0.604972493154883,0.3601720422204938
0.336308685138491,0.1265037138334043,0.5982241573675884,0.3601450892987922
0.3323881112562359,0.12415522555336089,0.5915616650917916,0.3600968097655767
0.3285187885892841,0.12185171657894178,0.5849837594422342,0.3600284706169524
0.3246999348954791,0.1195922608394786,0.5784892081976538,0.35994127652809627
0.3209307845609549,0.1173759537038297,0.5720768030299992,0.3598363727501268
0.31721058803595664,0.11520191139170921,0.5657453587679682,0.35971484787520713
0.3135386112967361,0.11306927040469783,0.5594937126931396,0.3595777364758287
0.3099141353321849,0.11097718697617076,0.5533207238670188,0.3594260216239408
0.30633645565393386,0.10892483653937979,0.5472252724874462,0.3592606372953431
0.3028048818287169,0.10691141321299069,0.5412062592728699,0.3590824706645215
0.29931873703186146,0.1049361293033857,0.5352626048730833,0.3588923642948586
0.29587735762082157,0.10299821482308025,0.5293932493050859,0.35869111822894595
0.29248009272773645,0.10109691702463697,0.523597151412803,0.35847949198350426
0.2891263038700404,0.09923149994947411,0.5178732883494734,0.35825820645321527
0.2858153645782087,0.0974012439910017,0.5122206550815553,0.358027945727578
0.282546660039768,0.09560544547154048,0.5066382639130913,0.3577893588247162
0.27931958675874774,0.09384341623250247,0.5011251440294944,0.3575430613458913
0.2761335522297907,0.09211448323733218,0.4956803410598065,0.3572896370542967
0.2729879746261825,0.09041798818673374,0.49030291665649894,0.35702963938156107
0.26988228250110025,0.08875328714572339,0.484991948091958,0.35676359286522374
0.26681591450141295,0.08711975018207418,0.4797465278708215,0.3564919945203082
0.2637883190934067,0.08551676101572803,0.4745657633574043,0.3562153151479668
0.26079895429983707,0.08394371667878087,0.4694487764174502,0.35593400058405134
0.25784728744774205,0.08240002718564887,0.46439470307353425,0.3556484728903223
0.2549327949264826,0.08088511521305475,0.4594026931734352,0.3553591314908955
0.25205496195549937,0.07939841578947604,0.45447191007085785,0.3550663542564054
0.24921328236130874,0.07793937599371792,0.44960153031790373,0.3547704985382535
0.24640725836327682,0.07650745466229014,0.44479074336872393,0.35447190215520297
0.24363640036774703,0.07510212210527245,0.4400387512938366,0.3541708843344774
0.2409002267701017,0.07372285983037308,0.4353447685045675,0.35386774660943265
0.23819826376438002,0.07236916027489615,0.43070802148716303,0.35356277367576205
0.23553004516007708,0.07104052654533699,0.42612774854610747,0.3532562342081259
0.23289511220577763,0.06973647216435186,0.4216031995562062,0.3529483816389928
0.23029301341929592,0.06845652082484321,0.41713363572303885,0.35263945490141646
0.22772330442400562,0.0672002061509176,0.41271832935137764,0.3523296791373798
0.2251855477910661,0.0659670714654893,0.4083565636212143,0.35201926637327496
0.22267931288725884,0.06475666956430037,0.40404763237104024,0.35170841616401205
0.22020417572817408,0.06356856249614695,0.3997908398880461,0.3513973162071813
0.21775971883648682,0.06240232134910151,0.39558550070493714,0.35108614292863527
0.21534553110509042,0.061257526042539034,0.39143093940304863,0.3507750620407878
0.21296120766485388,0.060133765124769534,0.3873264904214957,0.3504642290748766
0.21060634975679177,0.059030635576101,0.3832714978720768,0.3501537898883691
0.2082805646084398,0.05794774261715263,0.37926531535968455,0.3498438811486527
0.20598346531424366,0.05688469952225028,0.3753073058079712,0.34953463079408464
0.20371467071977722,0.05584112743774372,0.3713968412900588,0.34922615847343697
0.2014738053096139,0.05481665520508533,0.3675333028640495,0.348918575964723
0.19926049909869065,0.05381091918852349,0.3637160804131603,0.3486119875743473
0.19707438752700113,0.05299028516679816,0.35994457249025325,0.3483064905174763
0.1949151113574759,0.052194310268079636,0.35621818616661094,0.34800217528049016
0.19278231657690403,0.05141211498851117,0.3525363368847425,0.34769912596633656
0.19067565429976407,0.05064343860829479,0.3488984483150879,0.34739742062356593
0.18859478067483698,0.04988802588709984,0.34530395221643495,0.3470971315597985
0.18653935679448275,0.04914562693275082,0.3417522882999138,0.3467983256403363
0.18450904860645972,0.04841599707352828,0.33824290409641455,0.34650106457259877
0.18250352682818854,0.04769889673397121,0.3347752548273004,0.346205405177038
0.1805224668633474,0.04699409131406984,0.3313488032782821,0.34591139964514783
0.17856554872070668,0.04630135107175015,0.3279630196763257,0.3456190957851645
0.17663245693510915,0.045620451008543506,0.3246173815694915,0.34532853725602586
0.17472288049050722,0.044951170758348424,0.3213113737095714,0.34503976379012435
0.17283651274497142,0.044293294479186285,0.31804448793744466,0.34475281140537406
0.17097305135759555,0.04364661074786369,0.31481622307101964,0.3444677126070833
0.1691321982172177,0.043010912457449924,0.3116260847957,0.3441844965801035
0.1673136593728881,0.04238599671748644,0.30847358555725846,0.3439031893717034
0.16551714496601605,0.041771664756846016,0.3053582444570395,0.3436238140655923
0.16374236916412888,0.041167721829161286,0.3022795871494175,0.3433463909475125
0.16198905009618347,0.040573977120744176,0.2992371457414149,0.3430709376627781
0.16025690978937052,0.03999024366092652,0.29623045869442155,0.3427974693661441
0.1585456741073566,0.03941633823474344,0.2932590707279308,0.3425259988643552
0.1568550726899105,0.03885208129789541,0.29032253272523434,0.3422565367517165
0.15518483889386303,0.03829729689391792,0.2874204016410111,0.3419890915390079
0.15353470973535377,0.0377518125734958,0.2845522404107339,0.3417236697760574
0.15190442583331853,0.03723061932574667,0.28171761786185834,0.3414602761682607
0.1502937313541724,0.0367280573587927,0.2789161086267149,0.3411989136873368
0.14870237395764963,0.03623238016438468,0.27614729305707075,0.34093958367658106
0.14713010474375965,0.035743490713115555,0.27341075714029506,0.34068228595088157
0.1455766782008216,0.03526129341811024,0.27070609241708476,0.3404270188917341
0.14404185215454196,0.034785694109863985,0.2680328959007099,0.34017377953749794
0.14252538771810092,0.034316600011722986,0.26539076999772027,0.33992256366911056
0.14102704924321507,0.033853919715976954,0.26277932243008717,0.33967336589147745
0.13954660427214616,0.033397563160541766,0.26019816615872626,0.3394261797107383
0.13808382349062526,0.03294744160620733,0.2576469193083699,0.3391809976076027
0.13663848068166434,0.032503467614433235,0.255125205093752,0.33893781110694543
0.13521035268022874,0.03206555502566533,0.2526326517470645,0.33869661084383307
0.13379921932874494,0.031633618938161634,0.25016889244665563,0.3384573866261512
0.13240486343341873,0.031207575687301592,0.24773356524693635,0.3382201274939953
0.13102707072134034,0.030787342825367547,0.24532631300946717,0.3379848217759779
0.12966562979835272,0.030372839101773574,0.24294678333518682,0.3377514571425967
0.12832033210766586,0.02996398444373749,0.24059462849776092,0.3375200206568062
0.1269909718891914,0.029560699937365875,0.2382695053780235,0.33729049882192397
0.12567734613957954,0.02916290780915265,0.2359710753994826,0.3370628776269998
0.12437925457294352,0.028770531407864564,0.2336990044648568,0.33683714258976805
0.12309649958224572,0.028383495186810492,0.23145296289364192,0.3366132787973013
0.12182888620133614,0.02800172468647477,0.22923262536065026,0.3363912709444713
0.12057622206762214,0.027625146517504806,0.2270376708355324,0.3361711033703295
0.11933831738535267,0.027253688344045957,0.22486778252323902,0.33595276009249864
0.11811498488950695,0.026887278867404496,0.2227226478054074,0.33573622483967835
0.1169060398102682,0.02652584781003353,0.22060195818266015,0.3355214810823547
0.11571129983806877,0.026169325899833784,0.21850540921777828,0.33530851206179757
0.11453058508919678,0.025817644854753574,0.2164327004797557,0.3350973008174334
0.113363718071947,0.02547073736768346,0.21438353548869138,0.33488783021266877
0.11221052365330608,0.025128537091636094,0.21235762166151884,0.334680082959243
0.11107082902615972,0.024790978625202298,0.21035467025854726,0.33447404164018113
0.10994446367700922,0.024457997498274042,0.20837439633080868,0.33426968873141527
0.10883125935418864,0.024129530158031653,0.20641651866817678,0.3340670066221396
0.10773105003656785,0.023805513955182045,0.20448075974826496,0.33386597763396497
0.10664367190273527,0.023485887130444083,0.20256684568606675,0.3336665840389271
0.1055689633006488,0.02317058880127365,0.20067450618434401,0.3334688080764088
0.10450676471774417,0.022859558948825076,0.19880347448473623,0.33327263196903123
0.10345691875149299,0.022552738405135275,0.1969534873195753,0.33307803793756163
0.10241927008040036,0.022250068840534043,0.19512428486441524,0.33288500821489064
0.1013936654354346,0.02195149275126662,0.19331561069122816,0.3326935250591251
0.10037995357188084,0.02166032274659846,0.19152721172228815,0.3325035707658379
0.09937798524160668,0.021386517877013067,0.18975883818471306,0.33231512767952476
0.09838761316573896,0.021175761331839404,0.18801024356565277,0.33212817820429774
0.09740869200773694,0.021137563029577255,0.18628118456812204,0.33194270481386634
0.09644107834685839,0.02109940147794076,0.18457142106746116,0.33175869006083203
0.09548463065201196,0.02106128905354232,0.18288071606840672,0.3315761165853389
0.09453920925598625,0.021023237459523503,0.181208835662783,0.3313949671231098
0.09360467633005037,0.020985257753605602,0.1795555489877778,0.3312152245129023
0.09268089585892014,0.02094736037507061,0.1779206281848147,0.3310368717034119
0.09176773361608143,0.020909555170714023,0.17630384835899715,0.3308598917596547
0.0908650571394668,0.020871851419806964,0.1747049875391249,0.33068426786885374
0.08997273570747871,0.020834257858103,0.17312382663827108,0.3305099833458589
0.08909064031535174,0.020796782700926553,0.17156014941490327,0.3303370216381212
0.0882186436518505,0.02075943366537425,0.17001374243455514,0.3301653663302476
0.08735662007629691,0.020722217991664404,0.1684843950320254,0.3299950011481606
0.08650444559592096,0.02068514246366393,0.1669718992741045,0.32982590996287997
0.0856619978435299,0.02064821342862433,0.1654760499228214,0.329658076793949
0.08482915605549052,0.02061143681615485,0.1639966443991887,0.3294914858125263
0.08400580105002159,0.020574818156462338,0.16253348274746715,0.3293261213441617
0.08319181520578756,0.02053836259788322,0.16108636759990547,0.3291619678712673
0.08238708244079135,0.02050207492373468,0.1596551041419798,0.32899901003531196
0.08159148819156392,0.02046595956851105,0.1582395000781074,0.328837232638746
0.08080491939263951,0.020430020633447343,0.15683936559783218,0.32867662064667247
0.08002726445631814,0.020394261901475863,0.15545451334247629,0.3285171591882856
