jointMR1,jointMR2,jointMR3,force
5.6792009961572285,5.839675770048741,7.608705916434175,5.149212716691225
5.370071666876576,5.521885778454926,7.1845857321499,4.907656884267988
5.077346126172173,5.220922954598635,6.783128923378161,4.6770964585396015
4.800162726136455,4.935904397774095,6.403142341065658,4.457036480819313
4.537704905079884,4.665993381225768,6.0434953141258845,4.247004179573993
4.289198831849343,4.410396940229904,5.703116384305231,4.046547977451842
4.053911173154831,4.1683635861060875,5.380990211559236,3.8552365427220185
3.831146977482823,3.9391811395850107,5.076154641037386,3.6726578831403076
3.620247669509864,3.7221746773018154,4.787697923239458,3.498418480343783
3.421417327252848,3.516704585509614,4.514756079346802,3.332142462962196
3.235629216534176,3.322164715416005,4.256510404149423,3.1734708167148673
3.0596437604818387,3.1379806348375716,4.015141960211258,3.022060629839242
2.8929484069148614,2.9636079711442984,3.7901628514416914,2.877584372271236
2.7658193987062165,2.798530840728226,3.62904870393172,2.7397292070681094
2.65070984028793,2.642260360479509,3.4744311667209113,2.6081963326321125
2.5402667557718406,2.494333236988729,3.326051011696837,2.4827003543575765
2.434302785391212,2.354310429417861,3.183659328739931,2.3629686843857365
2.3326380563858082,2.221775882194033,3.0470171152590475,2.24874096821037
2.235099884508214,2.0963353238810076,2.915894882056046,2.1409983097751333
2.141522487417981,1.9776151287735586,2.7900722748696842,2.038327235003432
2.051746709490348,1.8652612379402695,2.6693377109749568,1.9403246892072392
1.9656197575851118,1.7589381366112073,2.5534880302388627,1.851415703316666
1.8829949473393413,1.6583278849689016,2.4423281600574054,1.7745238086664448
1.8037314595649567,1.5631291995546537,2.335670793621533,1.700720259088354
1.7276941063489188,1.4730565826476907,2.2670014367813383,1.6298819307710135
1.6547531064697403,1.4011151858658113,2.214111844030084,1.5618905996480372
1.5847838697594432,1.342508207453014,2.162674955395511,1.4966327464749738
1.5176667900548364,1.286269518148691,2.1126444455092925,1.4339993696614697
1.4532870463961518,1.232304218900809,2.0772837974142306,1.3738858055500471
1.3915344121447182,1.1835722000206306,2.0429169497361106,1.3161915558451673
1.3323030717043836,1.1372055999936275,2.0092894699594224,1.2608201219080242
1.2754914445439864,1.0927115637742435,1.9763801723508785,1.2076788456438687
1.2210020162301944,1.050014818493258,1.944168661543251,1.1566787567195116
1.1687411761916138,1.009043102874828,1.9126352974327294,1.1077344258591246
1.1186190619461847,0.9697270470868977,1.8817611617804657,1.0607638239764543
1.0705494095345311,0.9320000573780975,1.8515280264321852,1.0156881869112138
1.026268951876229,0.8957982053105813,1.8219183230741716,0.9948796281187502
1.0001211502228418,0.8610601214058078,1.7929151144481326,0.9771616812907518
0.9747772392113656,0.8292208115079982,1.764502066951434,0.9599344992304844
0.9502065929239893,0.808411643171481,1.7366634245529702,0.9431791625205728
0.9263799453663997,0.7882638016082877,1.709383983958511,0.9268776282612882
0.9032693247520627,0.768751017663242,1.6826490709627675,0.9110126862970119
0.885884063512873,0.7498482257145327,1.6564445179286331,0.8955679176871925
0.8712447024038702,0.7315315044297436,1.6307566423371105,0.8805276553056662
0.8569110666952285,0.7137780205343486,1.6055722263543297,0.8658769464582516
0.84287483305226,0.6965659754372907,1.5808784973648058,0.8516015174142343
0.8291279722049609,0.6798745545663236,1.5566631094226873,0.8376877397527771
0.815662736397677,0.6636838792734426,1.5329141255752157,0.8241225984304317
0.8024716474340388,0.6479749611779783,1.5096200010149574,0.8108936614807861
0.7895474852874554,0.6327296588218011,1.486769567019585,0.7979890512619082
0.7768832772489704,0.6179306365175925,1.4643520156400935,0.7853974171716104
0.7644722875857228,0.6035613252773186,1.4423568851003317,0.7731079097547221
0.7523080076846257,0.5896058857138894,1.4207740458726228,0.7611101561304754
0.7403841466571675,0.5760491728145398,1.3995936873960413,0.7493942366718499
0.7286946223824673,0.562876702489728,1.3788063054056163,0.7379506628722481
0.7172335529668872,0.550074619806327,1.3584026898423502,0.7267703563382285
0.7059952485996015,0.5376296688186208,1.3383739133154664,0.7158446288502025
0.6949742037845765,0.5255291639150905,1.3187113200897584,0.7051651634360067
0.6841650899304055,0.5137609626032262,1.2994065155722838,0.6947239964051226
0.6735627482803884,0.5023134396586264,1.2804513562739621,0.6845135002940252
0.663162183166136,0.4911754625684672,1.2618379402228634,0.6745263676756987
0.6529585555688306,0.48033636820303593,1.2435585978071622,0.6647555957888032
0.6429471769730783,0.46978594065246293,1.225605883026836,0.6551944719442742
0.6331235034990488,0.4595143901690295,1.2079725651342508,0.6458365596693283
0.6234831302993243,0.44951233315852135,1.1906516206447795,0.6366756855509185
0.6140217862075676,0.43977077316701263,1.1736362256995476,0.6277059267426551
0.6047353286267658,0.4302810828122423,1.1569197487633036,0.6189215991010634
0.595619738645428,0.4210349866113694,1.1404957436412753,0.6103172459188205
0.5866711163706992,0.4120245446593842,1.124357942799671,0.6018876272242929
0.57788567646791,0.40324213711481594,1.1085002509752733,0.593627709618278
0.569259743896608,0.3946804494516144,1.092916739060286,0.5855326566203624
0.5607897498336181,0.3863324584382043,1.0776016382493059,0.5775978194987352
0.5524722277741511,0.3781914188067276,1.062549334435934,0.5698187285586539
0.5443038098024371,0.3702508505773924,1.0477543628471777,0.5621910848660342
0.5362812230237768,0.3625045270046582,1.0332114029043782,0.5547107523838632
0.5284012861503209,0.35494646311370226,1.0189152732999667,0.5473737505002789
0.5206609062332636,0.34761930997786666,1.0048609272798819,0.5401762469282588
0.5130570755345052,0.3414098133802334,0.9910434481219901,0.5331145509578968
0.5055868685311873,0.3353237379454817,0.9774580448013288,0.5261851070432276
0.49824743904682534,0.3293582088983557,0.9641000478334484,0.5193844887064958
0.49103601750308556,0.32351043351479175,0.9509649052875643,0.5127093927436429
0.48394990828653894,0.31777769829380104,0.9380481789616356,0.506156633715632
0.4769864872250146,0.31215736624000384,0.9253455407118832,0.4997231387110191
0.47014319916843494,0.3066468742521858,0.9128527689296231,0.4934059423659324
0.46341755566927273,0.3012437306134425,0.900565745158647,0.4872021821283427
0.4568071327580069,0.29594551257867246,0.888480450846713,0.4811090937541744
0.4503095688091848,0.2909636382895353,0.8765929642250255,0.4751240070234593
0.44392256249391293,0.28635260106666327,0.8648994573098843,0.469244341665338
0.43764387081480344,0.28182447668977184,0.8533961930209659,0.4634676034812914
0.43147130721960214,0.27737751911950803,0.8420795224109765,0.4577913806565345
0.425402739789903,0.2730100282582641,0.8309458820016608,0.45221334025002446
0.41943608950153566,0.26872034839242903,0.8199917912214119,0.44673122485402195
0.41356932855337536,0.26450686669937584,0.8092138499399413,0.4413428494146167
0.40780047876148506,0.26036801181615266,0.7986087360957004,0.4360460982050694
0.4021276100156493,0.25630225246699545,0.788173203411948,0.4308389219442398
0.3965488387955022,0.2523080961469234,0.7779040791975589,0.4257193350527689
0.39106232674358743,0.2483840878588145,0.767798262228854,0.42068541304006546
0.38566627929281766,0.24452880890148665,0.7578527207089134,0.4157352900154953
0.3803589443459217,0.24074087570643143,0.7480644903010052,0.41086715631752035
0.37513861100458523,0.23701893872096536,0.7384306722329199,0.40607925625485036
0.3700036083461009,0.23336168133567137,0.7289484314691552,0.4013698859539772
0.3649523042454475,0.22976781885410957,0.7196149949480437,0.3967373913077509
0.3599831042408186,0.2262360975028741,0.7104276498810529,0.3921801660199299
0.35509445044071547,0.22276529348016766,0.7013837421116145,0.3876966497408989
0.3502848204708078,0.21935421204115568,0.6924806745309717,0.3832853262899929
0.34555272645885227,0.2160016866184442,0.6837159055486455,0.37894472196010415
0.34089671405604033,0.21270657797610887,0.6750869476152375,0.37467340390046244
0.3363153614932215,0.20946777339577827,0.6665913657953935,0.3704699785736988
0.33180727867052484,0.20628418589334546,0.6582267763888503,0.3663330902834943
0.32737110627896787,0.2031547534649537,0.6499908455975889,0.36226141976930915
0.3230055149527105,0.2000784383609654,0.6418812882372091,0.3582536828648671
0.31870920445067297,0.19705422638668652,0.633895866490725,0.35430862921723505
0.31448090286629726,0.1940811262286773,0.6260323887030637,0.3504250410635056
0.3103193658642879,0.19115816880553704,0.6182887082146347,0.346601732062239
0.30622337594322263,0.1882844066421029,0.6106627222324059,0.3428375461769677
0.30219174172297375,0.18545891326605396,0.6031523707369935,0.339131356609202
0.2982232972559304,0.1826807826259596,0.5957556354243472,0.3354820647785118
0.2943169013610585,0.17994912852985745,0.5884705386806701,0.331888599347373
0.2904714369798793,0.17726308410348823,0.5812951425892787,0.32834991528859586
0.2866858105534883,0.17462180126735732,0.5742275479681622,0.32486499299325583
0.2829589514197778,0.1720244502318326,0.5672658934370614,0.32143283741715445
0.2792898112300636,0.16947021900952186,0.560408354512935,0.31805247726394287
0.27567736338435217,0.16695831294421393,0.5536531427327382,0.314722964203128
0.2721206024845196,0.16448795425569557,0.5469985048024744,0.31144337212127704
0.26861854380470557,0.1620583815997932,0.5404427217715433,0.3082127964048197
0.26517022277825775,0.15966884964301398,0.5339841082314365,0.3050303532529275
0.2617746945005907,0.15731862865119517,0.5276210115378819,0.30189517901902907
0.258431033247352,0.15500700409159163,0.5213518110555733,0.2988064295795884
0.2551383320073146,0.15273327624786454,0.5151749174246645,0.2957632797288495
0.2518957020294418,0.1504967598474521,0.5090887718482342,0.2927649225983087
0.24870227238359158,0.14829678370083293,0.5030918453999702,0.28981056909974245
0.2455571895343559,0.14613269035221066,0.497182638351348,0.2868994473906801
0.24245961692754658,0.1440038357411716,0.49135967951761583,0.28403080236125705
0.23940873458886522,0.14190958887488792,0.4856215256219192,0.28120389514145006
0.23640373873431164,0.13984933151045698,0.47996676067693245,0.27841800262773764
0.23344384139190577,0.1378224578469861,0.4743939953833911,0.27567241702827705
0.23052827003431575,0.1358283742270508,0.46890186654493937,0.27296644542574
0.22765626722200194,0.13386649884716878,0.46348903649873807,0.2702994093569871
0.2248270902565036,0.1319362614769501,0.45815419256129486,0.267670644408804
0.2220400108435105,0.13003710318659734,0.45289604648900483,0.2650794998289602
0.21929431476537642,0.12816847608244508,0.4477133339529107,0.26252533815188894
0.21658930156274614,0.12632984305024053,0.44260481402720875,0.26000753483832223
0.21392428422498108,0.12452067750588158,0.4375692686910473,0.25752547792824426
0.21129858888908165,0.12274046315333886,0.43260550234318473,0.25507856770656434
0.20871155454681659,0.1209886937495025,0.4277123413290884,0.2526662163809332
0.2061625327597819,0.11926487287570386,0.4228886334800728,0.25028784777116037
0.20365088738212292,0.1175685137156735,0.4181332476640951,0.24794289700971442
0.20117599429066324,0.11589913883970715,0.41344507334783454,0.24563081025281353
0.19873724112219632,0.11425627999482119,0.4088230201697032,0.24335104440163877
0.19633402701770267,0.11263947790068796,0.4042660175234438,0.2411030668332247
0.19396576237326782,0.11104828205115014,0.39977301415198974,0.2388863551406041
0.19163186859748263,0.10948225052112198,0.3953429777512669,0.23670039688180453
0.18933177787511787,0.10794094977869367,0.39097489458363976,0.23454468933731304
0.18706493293687212,0.10642395450226072,0.38666776910070033,0.23241873927564488
0.18483078683500032,0.10493084740251107,0.3824206235751295,0.23032206272666927
0.18262880272463747,0.10346121904910516,0.3782324977413507,0.2282541847623629
0.18045845365063928,0.10201466770189521,0.3741024484447204,0.22621463928467603
0.17831922233976832,0.10059079914653257,0.37002954929900267,0.22420296882021307
0.1762106009980605,0.09918922653432044,0.36601289035188533,0.22221872432144246
0.17413209111321332,0.09780957022617398,0.362051577758306,0.22026146497416535
0.17208320326184312,0.09645145764055535,0.3581447334613619,0.21833075801098478
0.1700634569214638,0.09511452310525714,0.3542914948805871,0.21642617853052926
0.1680723802870457,0.09379840771291098,0.35049101460738874,0.21454730932219762
0.1661095100920181,0.09250275918010548,0.3467424601074409,0.21269374069620103
0.1641743914335837,0.09122723170999919,0.34304501342983884,0.2108650703186902
0.1622665776022183,0.08997148585832188,0.33939787092283136,0.20906090305176558
0.16038562991523347,0.08873518840265815,0.3358002429559437,0.2072808507981769
0.15853111755428503,0.08751801221491395,0.3322513536483216,0.20552453235052837
0.1567026174067125,0.08631963613687021,0.328750440603123,0.20379157324481426
0.15489971391060123,0.08513974485872888,0.3252967546477976,0.2020816056181175
0.1531219989034604,0.08397802880056399,0.3218895595800937,0.20039426807031135
0.15136907147441575,0.08283418399658998,0.31852813191964313,0.19872920552961282
0.14964053781981743,0.08170791198216565,0.31521176066497225,0.1970860691218413
0.14793601110216908,0.0805989196834529,0.3119397470558005,0.19546451604324558
0.14625511131228505,0.07950691930965431,0.3087114043404875,0.19386420943676494
0.14459746513458785,0.07843162824775424,0.3055260575484924,0.19228481827159963
0.14296270581545958,0.07737276895969247,0.3023830432677215,0.1907260172259697
0.14135047303456466,0.07633006888190208,0.2992817094266351,0.1891874865729464
0.1397604127790636,0.07530326032714352,0.29622141508099253,0.18766891206924685
0.13819217722064014,0.07429208038857221,0.2932015302051212,0.18616998484688654
0.1366454245952674,0.07329627084597623,0.2902214354875925,0.184690401307589
0.13511981908563978,0.07231557807412603,0.2872805221311969,0.18322986301985736
0.13361503070620068,0.07134975295317636,0.28437819165711153,0.18178807661861437
0.1321307351906985,0.07039855078106672,0.2815138557131547,0.1803647537073252
0.13066661388220485,0.0694617311878647,0.27868693588602844,0.17895961076251699
0.12922235362553094,0.06853905805200095,0.2758968635174541,0.1775723690406154
0.1277976466619814,0.06763029941834575,0.2731430795241019,0.1762027544870228
0.1263921905263849,0.06673522741807741,0.270425034221226,0.17485049764736077
0.12500568794634437,0.06585361819029673,0.26774218714991815,0.17351533358081034
0.12363784674365014,0.06498525180534065,0.26509400690788865,0.17219700177547995
0.12228837973780227,0.06412991218975261,0.26247997098369336,0.1708952460657366
0.1209570046515886,0.0632873870528653,0.25989956559432836,0.16960981455143925
0.11964344401866842,0.06245746781495565,0.25735228552610834,0.16834045951901358
0.11834742509311086,0.06163994953693186,0.2548376339787559,0.16708693736431254
0.11706867976084134,0.060834630851513416,0.2523551224126237,0.16584900851720594
0.1158069444529482,0.06004131389586709,0.24990427039898133,0.16462643736784877
0.11456196006080477,0.05925980424566224,0.24748460547329265,0.16341899219457623
0.11333347185296314,0.05848991085051042,0.24509566299141627,0.16222644509337805
0.11212122939377633,0.05773144597075458,0.2427369859886659,0.16104857190890506
0.11092498646370785,0.056984225115576104,0.24040812504165854,0.15988515216696325
0.10974450098128807,0.056248066982385936,0.23810863813289496,0.15873596900845333
0.10857953492667877,0.05552279339746968,0.23583809051800841,0.15760080912471308
0.10742985426680718,0.054808229257856556,0.23359605459561839,0.15647946269422483
0.10629522888203324,0.05410420247438186,0.2313821097797386,0.15537172332064728
0.10517543249431371,0.05341054391591582,0.22919584237467538,0.15427738797213797
0.1040702425968282,0.05272708735473036,0.22703684545236702,0.15319625692192818
0.10297944038503387,0.05205366941297673,0.22490471873210782,0.1521281336901188
0.10190281068911469,0.051390129510249016,0.22279906846260356,0.15107282498666225
0.10084014190779425,0.050736309812207,0.22071950730630996,0.15003014065550027
0.09979122594347997,0.05049420529296922,0.2186656542260057,0.14899989361982713
0.09875585813870913,0.05033178455230014,0.21663713437354515,0.14798189982844775
0.09773383721386641,0.050169505242044554,0.21463357898075297,0.14697597820320382
0.09672496520614474,0.05000740685285754,0.21265462525240686,0.14598195058743976
0.0957290474097211,0.04984552689752941,0.2106999162612686,0.14499964169548316
0.09474589231712016,0.04968390099374731,0.2087691008451178,0.14402887906311215
0.09377531156173904,0.049522562943526416,0.20686183350574505,0.14306949299898875
0.09281711986150751,0.04936154480943944,0.2049777743098653,0.14212131653703008
0.09187113496365831,0.049200876987775755,0.20311658879191152,0.14118418538969868
0.09093717759058312,0.049040588278747466,0.20127794785866193,0.1402579379021868
0.09001507138675,0.04888070595386784,0.19946152769567482,0.13934241500747466
0.08910464286665956,0.048721255820607934,0.19766700967548156,0.1384374601822414
0.08820572136381655,0.04856226228444016,0.1958940802675082,0.13754291940360977
0.08731813898069501,0.04840374840838013,0.19414243094968664,0.136658641106703
0.08644173053967544,0.048245735970119163,0.19241175812172173,0.13578447614299743
0.08557633353493282,0.04808824551684665,0.1907017630199812,0.134920277739451
0.08472178808525516,0.047931296417853764,0.18901215163397178,0.13406590145839067
0.08387793688777218,0.04777490691500985,0.18734263462437295,0.13322120515814218
0.08304462517257516,0.047619094171190035,0.18569292724259245,0.1323860489543838
0.08222170065820833,0.04746387431674348,0.18406274925181698,0.1315602951822107
0.08140901350801383,0.04730926249407441,0.18245182484952482,0.13074380835889093
0.08060641628731158,0.04715527290041788,0.18085988259143004,0.12993645514730184
0.07981376392139669,0.047001918828871836,0.1792866553168333,0.12913810432002878
0.07903091365433726,0.04684921270776776,0.1777318800753449,0.12834862672411354
0.07825772500855516,0.04669716613843733,0.17619529805496126,0.12756789524643844
0.07749405974517432,0.04654578993144276,0.17467665451145575,0.1267957847797327
0.0767397818251192,0.04639509414133158,0.1731756986990709,0.1260321721891874
0.07599475737094935,0.04624508809997396,0.17169218380247475,0.12527693627966707
0.07525885462941306,0.046095780448542234,0.17022586686996322,0.12452995776350494
0.07453194393470672,0.04594717916818325,0.16877650874788075,0.12379111922887043
0.07381389767242394,0.04579929160943763,0.1673438740162363,0.12306030510869614
0.0731045902441815,0.045652124520457193,0.16592773092548962,0.1223374016501545
0.07240389803290706,0.04550568407406497,0.16452785133448766,0.12162229688467127
0.07171169936877561,0.045359975893710214,0.16314401064952389,0.12091488059846621
0.07102787449578163,0.04521500507835485,0.16177598776450464,0.12021504430361041
0.07035230553893324,0.04507077622634326,0.1604235650021939,0.11952268120958914
0.06968487647205618,0.04492729345828572,0.15908652805652124,0.1188376861953608
0.0690254730861953,0.044784560439005694,0.15776466593593041,0.11815995578190286
0.06837398295860111,0.04464258039857971,0.15645777090774482,0.1174893881052338
0.0677302954222897,0.04450135615251216,0.15516563844353715,0.11682588288990328
0.06709430153616455,0.04436089012107636,0.15388806716547676,0.11616934142293998
0.06646589405568884,0.04422118434785727,0.15262485879364074,0.11551966652825024
0.06584496740409718,0.04408224051752507,0.15137581809426726,0.11526680135078637
0.06523141764413593,0.043944059972876315,0.15014075282893447,0.1150764547629034
0.06462514245032189,0.0438066437311635,0.1489194737046471,0.11488532195305634
0.06402604108170812,0.04366999249975034,0.14771179432481252,0.11469342947314132
0.06343401435514809,0.043534106691115015,0.14651753114109067,0.11450080338291069
0.06284896461904715,0.043398986437224285,0.1453365034060985,0.11430746925860868
