jointHR1,jointHR2,jointHR3,footHRx,footHRy,footHRz,force
-0.90345185995102,0.48552012443542,-1.5974462032318,-0.17448627948761,-0.15445096790791,0.39408883452415,0
-0.90313857793808,0.48584145307541,-1.5980281829834,-0.17424303293228,-0.15447720885277,0.39412915706635,0
-0.90182077884674,0.4871908724308,-1.6004709005356,-0.1736705750227,-0.15455967187881,0.39421656727791,0
-0.89943695068359,0.48962196707726,-1.604875087738,-0.17277181148529,-0.15467803180218,0.39435464143753,0
-0.89601576328278,0.49282172322273,-1.6105854511261,-0.1716835051775,-0.15494661033154,0.39453780651093,0
-0.89147698879242,0.49621802568436,-1.6163673400879,-0.17049437761307,-0.15543381869793,0.39475083351135,0
-0.88593596220016,0.49957764148712,-1.6217653751373,-0.1692205965519,-0.15612071752548,0.39498978853226,0
-0.87957566976547,0.50277715921402,-1.6265422105789,-0.16793577373028,-0.15698835253716,0.39525753259659,0
-0.87257754802704,0.50566244125366,-1.6303606033325,-0.16669516265392,-0.15803600847721,0.3955440223217,0
-0.86509048938751,0.50820308923721,-1.6331868171692,-0.16548842191696,-0.15924380719662,0.39584293961525,0
-0.85725295543671,0.51042675971985,-1.6350804567337,-0.16432812809944,-0.16057430207729,0.39616683125496,0
-0.84920954704285,0.51234620809555,-1.6360064744949,-0.16325128078461,-0.16200669109821,0.39651855826378,0
-0.84105598926544,0.51398396492004,-1.6360176801682,-0.16225749254227,-0.16353723406792,0.39688915014267,0
-0.83286291360855,0.51539278030396,-1.635226726532,-0.16132959723473,-0.16514743864536,0.39728888869286,0
-0.82472068071365,0.51665258407593,-1.6337095499039,-0.16047783195972,-0.16680443286896,0.39773225784302,0
-0.81668782234192,0.51780849695206,-1.6315416097641,-0.15971660614014,-0.16850526630878,0.39821237325668,0
-0.80880844593048,0.51897412538528,-1.6288884878159,-0.15903086960316,-0.17023797333241,0.39875471591949,0
-0.80117839574814,0.52047598361969,-1.6260778903961,-0.15840373933315,-0.17195746302605,0.39940470457077,0
-0.79386222362518,0.52253019809723,-1.6233441829681,-0.15784740447998,-0.1736474186182,0.40016621351242,0
-0.78688794374466,0.52518713474274,-1.6207957267761,-0.1573697924614,-0.17529879510403,0.40104407072067,0
-0.78036457300186,0.5286500453949,-1.6186836957932,-0.15695153176785,-0.17687399685383,0.40206351876259,0
-0.77437365055084,0.5330718755722,-1.6172096729279,-0.15658843517303,-0.17834633588791,0.40322542190552,0
-0.76888489723206,0.53836399316788,-1.6163402795792,-0.15629807114601,-0.17972682416439,0.40450817346573,0
-0.7638795375824,0.5444410443306,-1.6160440444946,-0.15606428682804,-0.18102437257767,0.40589508414269,0
-0.75933879613876,0.55124247074127,-1.6163110733032,-0.15585926175118,-0.18222984671593,0.40737655758858,0
-0.75519174337387,0.55863291025162,-1.6170387268066,-0.1556950956583,-0.18335188925266,0.40893569588661,0
-0.75136125087738,0.5664621591568,-1.6180911064148,-0.15557432174683,-0.18442429602146,0.41054767370224,0
-0.74777203798294,0.57460695505142,-1.6193593740463,-0.15546303987503,-0.18546275794506,0.41219893097878,0
-0.7443665266037,0.58297741413116,-1.6207685470581,-0.15535682439804,-0.18645590543747,0.41388821601868,0
-0.74110621213913,0.59149599075317,-1.6222453117371,-0.15527899563313,-0.18742148578167,0.41560262441635,0
-0.73795592784882,0.60009348392487,-1.623721241951,-0.15521456301212,-0.18838267028332,0.4173292517662,0
-0.73488467931747,0.60872954130173,-1.625165104866,-0.15513814985752,-0.18932914733887,0.41907066106796,0
-0.73187518119812,0.61737179756165,-1.6265511512756,-0.15506957471371,-0.19025565683842,0.42082634568214,0
-0.72891306877136,0.62597906589508,-1.6278328895569,-0.15502013266087,-0.19118583202362,0.42258435487747,0
-0.72598373889923,0.63452643156052,-1.6289894580841,-0.15496212244034,-0.19212207198143,0.42434337735176,0
-0.72307682037354,0.6430059671402,-1.6300196647644,-0.15489433705807,-0.19304604828358,0.42611026763916,0
-0.72018843889236,0.65139502286911,-1.6309000253677,-0.15484522283077,-0.1939694583416,0.42787843942642,0
-0.71731352806091,0.65967607498169,-1.6316111087799,-0.15480081737041,-0.1949088871479,0.42964074015617,0
-0.71443974971771,0.66783940792084,-1.6321495771408,-0.15473668277264,-0.1958524286747,0.43140208721161,0
-0.71155732870102,0.675861120224,-1.6324918270111,-0.15467698872089,-0.19679293036461,0.43316429853439,0
-0.70866715908051,0.68372344970703,-1.6326167583466,-0.15463349223137,-0.19775080680847,0.43491822481155,0
-0.70575624704361,0.69140285253525,-1.6325025558472,-0.15457755327225,-0.19873464107513,0.4366592168808,0
-0.70279943943024,0.6988513469696,-1.6321036815643,-0.15450608730316,-0.19972896575928,0.43839293718338,0
-0.6997966170311,0.70604944229126,-1.6313997507095,-0.15445023775101,-0.20073960721493,0.44011598825455,0
-0.69674724340439,0.7129790186882,-1.6303725242615,-0.15439681708813,-0.20179009437561,0.44181707501411,0
-0.69363152980804,0.71960461139679,-1.6289939880371,-0.15432119369507,-0.20286883413792,0.44350033998489,0
-0.69045054912567,0.72592103481293,-1.6272649765015,-0.15424445271492,-0.20396035909653,0.44517207145691,0
-0.68721961975098,0.73194193840027,-1.6251997947693,-0.15418177843094,-0.20508234202862,0.44682469964027,0
-0.68394058942795,0.73768436908722,-1.6228233575821,-0.15410625934601,-0.20623514056206,0.44845896959305,0
-0.68061858415604,0.74318236112595,-1.6201796531677,-0.15401187539101,-0.2073949277401,0.45008617639542,0
-0.67727214097977,0.74846923351288,-1.6173051595688,-0.15392701327801,-0.20855811238289,0.45170831680298,0
-0.67391467094421,0.75358080863953,-1.6142374277115,-0.15384550392628,-0.20974011719227,0.45332035422325,0
-0.67055028676987,0.75856059789658,-1.6110280752182,-0.15374065935612,-0.21092613041401,0.45493024587631,0
-0.66718804836273,0.76343768835068,-1.6077101230621,-0.15362800657749,-0.21209682524204,0.4565466940403,0
-0.66383957862854,0.76823282241821,-1.6043030023575,-0.15352682769299,-0.2132675498724,0.45816347002983,0
-0.66050577163696,0.77296733856201,-1.6008310317993,-0.15341274440289,-0.21444338560104,0.45977920293808,0
-0.65718549489975,0.77765470743179,-1.597311258316,-0.15327589213848,-0.21560354530811,0.46140348911285,0
-0.65388715267181,0.78231954574585,-1.5937707424164,-0.15314346551895,-0.21674194931984,0.46303915977478,0
-0.6506142616272,0.78698772192001,-1.5902386903763,-0.15301235020161,-0.21788109838963,0.46467638015747,0
-0.64736080169678,0.79165440797806,-1.5867096185684,-0.15285421907902,-0.21901106834412,0.4663200378418,0
-0.64412903785706,0.79634010791779,-1.5832096338272,-0.15268252789974,-0.22010861337185,0.46798053383827,0
-0.64092648029327,0.80107671022415,-1.5797737836838,-0.15251918137074,-0.22119331359863,0.46964859962463,0
-0.6377477645874,0.8058408498764,-1.5763741731644,-0.15233996510506,-0.22227507829666,0.47131991386414,0
-0.63458871841431,0.81063282489777,-1.5730125904083,-0.15213292837143,-0.22333118319511,0.47300490736961,0
-0.63145476579666,0.81546604633331,-1.5697038173676,-0.15192997455597,-0.22436155378819,0.47470265626907,0
-0.62834656238556,0.82030963897705,-1.5664082765579,-0.15173098444939,-0.22539336979389,0.47640073299408,0
-0.62525564432144,0.82513999938965,-1.563099861145,-0.15150614082813,-0.22641740739346,0.47810372710228,0
-0.62218177318573,0.82994794845581,-1.5597665309906,-0.15127271413803,-0.22741693258286,0.47981861233711,0
-0.61912977695465,0.83470642566681,-1.5563735961914,-0.15105606615543,-0.22841499745846,0.48153445124626,0
-0.61609441041946,0.83938872814178,-1.5528899431229,-0.15083003044128,-0.22942139208317,0.48324707150459,0
-0.6130690574646,0.84399342536926,-1.54931640625,-0.15058280527592,-0.23041498661041,0.48496615886688,0
-0.61005836725235,0.84851276874542,-1.5456439256668,-0.15034738183022,-0.2313959300518,0.48669090867043,0
-0.60705727338791,0.85292321443558,-1.541846036911,-0.1501189917326,-0.23239301145077,0.48840740323067,0
-0.60404092073441,0.85721093416214,-1.5379201173782,-0.14986144006252,-0.23339642584324,0.49011972546577,0
-0.60100090503693,0.8613805770874,-1.5338776111603,-0.1495907753706,-0.23438777029514,0.4918358027935,0
-0.59793829917908,0.86541825532913,-1.5297037363052,-0.14932982623577,-0.23538884520531,0.49354419112205,0
-0.59482967853546,0.86930119991302,-1.5253857374191,-0.14904633164406,-0.23641282320023,0.49523776769638,0
-0.59165799617767,0.87303233146667,-1.5209378004074,-0.14872632920742,-0.23743753135204,0.49692678451538,0
-0.58843100070953,0.87661594152451,-1.5163630247116,-0.14840196073055,-0.23846051096916,0.49861136078835,0
-0.58514416217804,0.88003253936768,-1.5116437673569,-0.14807052910328,-0.23950952291489,0.50027751922607,0
-0.58178460597992,0.88327777385712,-1.5067828893661,-0.14769950509071,-0.24057392776012,0.50193071365356,0
-0.57836306095123,0.88636958599091,-1.5017958879471,-0.14730755984783,-0.24163021147251,0.50358206033707,0
-0.57489335536957,0.88930356502533,-1.4966714382172,-0.14692109823227,-0.24270071089268,0.5052210688591,0
-0.57137620449066,0.89207047224045,-1.4913982152939,-0.14651441574097,-0.24379307031631,0.50684505701065,0
-0.56781768798828,0.89468848705292,-1.4859914779663,-0.14607571065426,-0.24488194286823,0.50846654176712,0
-0.56422984600067,0.89716464281082,-1.4804552793503,-0.14563973248005,-0.24596592783928,0.51008570194244,0
-0.56061685085297,0.89948457479477,-1.4747697114944,-0.1452072262764,-0.24707195162773,0.51169067621231,0
-0.5569783449173,0.90165120363235,-1.4689373970032,-0.14474406838417,-0.24818658828735,0.51328808069229,0
-0.55330628156662,0.90366888046265,-1.4629719257355,-0.1442609578371,-0.24929295480251,0.51488202810287,0
-0.54958307743073,0.90550601482391,-1.4568548202515,-0.14378325641155,-0.25041568279266,0.51646000146866,0
-0.54580932855606,0.90715193748474,-1.4505721330643,-0.14328464865685,-0.25156256556511,0.51801937818527,0
-0.54196435213089,0.90859997272491,-1.4441367387772,-0.14273691177368,-0.25271797180176,0.5195580124855,0
-0.53800415992737,0.90980386734009,-1.4375451803207,-0.14217184484005,-0.25388327240944,0.5210719704628,0
-0.53393661975861,0.91074979305267,-1.4307776689529,-0.14159253239632,-0.25508436560631,0.52255135774612,0
-0.52975362539291,0.91143232584,-1.4238386154175,-0.1409540772438,-0.25631305575371,0.52399063110352,0
-0.52542543411255,0.91182887554169,-1.4167473316193,-0.14027202129364,-0.25754833221436,0.5253963470459,0
-0.52096837759018,0.9119371175766,-1.4094939231873,-0.13957799971104,-0.25880965590477,0.52676278352737,0
-0.51638901233673,0.9117443561554,-1.4020621776581,-0.13884097337723,-0.2601121366024,0.52807468175888,0
-0.51166796684265,0.91122323274612,-1.3944605588913,-0.13804440200329,-0.26143011450768,0.52934008836746,0
-0.50682067871094,0.91038352251053,-1.3866941928864,-0.13722941279411,-0.26275914907455,0.53056514263153,0
-0.50186443328857,0.90921676158905,-1.3787430524826,-0.13639470934868,-0.26412916183472,0.53172922134399,0
-0.49678692221642,0.90769064426422,-1.3706064224243,-0.13550248742104,-0.26552727818489,0.53283250331879,0
-0.49159595370293,0.90582084655762,-1.3623027801514,-0.13457517325878,-0.26692813634872,0.53389132022858,0
-0.48631447553635,0.90361446142197,-1.3538228273392,-0.13364166021347,-0.26835569739342,0.53489035367966,0
-0.48093971610069,0.90103930234909,-1.3451571464539,-0.13267129659653,-0.26981925964355,0.53581774234772,0
-0.47547283768654,0.89810585975647,-1.3363263607025,-0.13165237009525,-0.27129027247429,0.53669106960297,0
-0.46993491053581,0.89484095573425,-1.3273384571075,-0.13062416017056,-0.27276641130447,0.53751027584076,0
-0.46433421969414,0.89121603965759,-1.3181792497635,-0.12958550453186,-0.2742768228054,0.53825283050537,0
-0.45866870880127,0.88722211122513,-1.3088555335999,-0.12850134074688,-0.27580499649048,0.53892940282822,0
-0.45295241475105,0.88290083408356,-1.2993899583817,-0.12739291787148,-0.27732634544373,0.53955298662186,0
-0.44719949364662,0.87823903560638,-1.289783000946,-0.12628781795502,-0.27886465191841,0.54010093212128,0
-0.44141027331352,0.87321078777313,-1.2800333499908,-0.12515844404697,-0.28042751550674,0.54057121276855,0
-0.43559056520462,0.86785358190536,-1.2701692581177,-0.12398996204138,-0.28198575973511,0.54097431898117,0
-0.42975199222565,0.86216199398041,-1.2602643966675,-0.12281503528357,-0.2835299372673,0.54127478599548,0
-0.42389971017838,0.85608565807343,-1.2503929138184,-0.12163443863392,-0.28508496284485,0.5414537191391,0
-0.41803905367851,0.84965300559998,-1.2405725717545,-0.12041487544775,-0.28663542866707,0.54151940345764,0
-0.41220393776894,0.84290719032288,-1.2309546470642,-0.1191783323884,-0.28812962770462,0.54143005609512,0
-0.40644937753677,0.83585453033447,-1.2217651605606,-0.11795951426029,-0.28958389163017,0.54116749763489,0
-0.40078157186508,0.82852363586426,-1.2129820585251,-0.1167309358716,-0.29100978374481,0.54074621200562,0
-0.39523220062256,0.82099771499634,-1.2046984434128,-0.11549230664968,-0.29234883189201,0.54015374183655,0
-0.38988202810287,0.81337475776672,-1.1971461772919,-0.11428911983967,-0.29359370470047,0.53939974308014,0
-0.38472861051559,0.80567193031311,-1.1902432441711,-0.11311978846788,-0.29478481411934,0.53849655389786,0
-0.37977039813995,0.79793977737427,-1.1839709281921,-0.11195717006922,-0.29588752985001,0.53745073080063,0
-0.37505459785461,0.79028964042664,-1.1784784793854,-0.11082292348146,-0.29687887430191,0.53628891706467,0
-0.37056791782379,0.78272271156311,-1.1736671924591,-0.10974210500717,-0.29779663681984,0.53502309322357,0
-0.36630153656006,0.77524763345718,-1.169473528862,-0.1086950302124,-0.29863747954369,0.53364968299866,0
-0.36229127645493,0.76795768737793,-1.1660188436508,-0.10766827315092,-0.29937145113945,0.53219193220139,0
-0.35852605104446,0.7608608007431,-1.1632473468781,-0.10669565200806,-0.30001154541969,0.53066796064377,0
-0.35497695207596,0.75392979383469,-1.1610510349274,-0.10577104240656,-0.30058738589287,0.52907460927963,0
-0.3516189455986,0.74719852209091,-1.1594321727753,-0.10485041886568,-0.30109119415283,0.52742677927017,0
-0.34842282533646,0.74066925048828,-1.1583385467529,-0.10394924879074,-0.30151280760765,0.52574867010117,0
-0.34535950422287,0.73430877923965,-1.1576691865921,-0.10308577865362,-0.30188304185867,0.52403980493546,0
-0.34238994121552,0.72811377048492,-1.1573787927628,-0.10222227871418,-0.30221652984619,0.52230131626129,0
-0.33948045969009,0.72208321094513,-1.1574304103851,-0.10133899003267,-0.30249685049057,0.52055203914642,0
-0.33661532402039,0.71619707345963,-1.1577659845352,-0.10046997666359,-0.30272808670998,0.51880025863647,0
-0.33377993106842,0.71044808626175,-1.1583548784256,-0.099608764052391,-0.30294016003609,0.51703417301178,0
-0.33095496892929,0.70483207702637,-1.1591778993607,-0.098716638982296,-0.30312317609787,0.51526141166687,0
-0.3281324505806,0.69933760166168,-1.1602053642273,-0.097812555730343,-0.3032600581646,0.51349699497223,0
-0.32531255483627,0.69387084245682,-1.1612913608551,-0.096930511295795,-0.3034009039402,0.51172810792923,0
-0.32248628139496,0.68831551074982,-1.162264585495,-0.096035949885845,-0.30354061722755,0.50994968414307,0
-0.3196496963501,0.68282252550125,-1.1633427143097,-0.095110706984997,-0.30364459753036,0.50817686319351,0
-0.31680661439896,0.6774485707283,-1.1646019220352,-0.094191119074821,-0.30370959639549,0.50641423463821,0
-0.31396079063416,0.67219334840775,-1.1660412549973,-0.09327606856823,-0.30376464128494,0.50464636087418,0
-0.31110489368439,0.66702735424042,-1.1676188707352,-0.092329762876034,-0.30379858613014,0.50287795066833,0
-0.30823916196823,0.66195154190063,-1.1693331003189,-0.091371648013592,-0.303790807724,0.50112289190292,0
-0.30537128448486,0.65695852041245,-1.1711709499359,-0.090430587530136,-0.30376824736595,0.49936977028847,0
-0.30249935388565,0.65200650691986,-1.17307472229,-0.089477203786373,-0.30374112725258,0.49761074781418,0
-0.29961979389191,0.64708852767944,-1.1750357151031,-0.088498592376709,-0.30368390679359,0.49585857987404,0
-0.2967409491539,0.64220988750458,-1.1770610809326,-0.087532974779606,-0.30359995365143,0.49411591887474,0
-0.29386669397354,0.63733357191086,-1.1790976524353,-0.086579628288746,-0.30351915955544,0.49236640334129,0
-0.290991127491,0.63244777917862,-1.1811317205429,-0.08560224622488,-0.30342373251915,0.49061518907547,0
-0.28811514377594,0.62758010625839,-1.1832022666931,-0.084619425237179,-0.30329528450966,0.48887565732002,0
-0.2852446436882,0.62271130084991,-1.1852786540985,-0.083658769726753,-0.30316078662872,0.48713639378548,0
-0.2823777794838,0.61793541908264,-1.1874904632568,-0.082681521773338,-0.30299180746078,0.48540267348289,0
-0.2795045375824,0.61344563961029,-1.1901021003723,-0.081672951579094,-0.30277758836746,0.48368507623672,0
-0.27661454677582,0.60908097028732,-1.1928832530975,-0.080671943724155,-0.30253455042839,0.48198294639587,0
-0.27370226383209,0.60479009151459,-1.1957584619522,-0.079669810831547,-0.30228394269943,0.48028492927551,0
-0.27074819803238,0.60065001249313,-1.1988261938095,-0.07862850278616,-0.30200612545013,0.4785992205143,0
-0.26774805784225,0.59668964147568,-1.2021225690842,-0.07756657898426,-0.30168506503105,0.47693845629692,0
-0.26470893621445,0.59290653467178,-1.2056413888931,-0.076509296894073,-0.30133873224258,0.47529566287994,0
-0.26162880659103,0.5893526673317,-1.2094507217407,-0.075426675379276,-0.30096757411957,0.47366639971733,0
-0.25850242376328,0.58604824542999,-1.2135795354843,-0.074307158589363,-0.30055084824562,0.47206163406372,0
-0.25534224510193,0.58297991752625,-1.2180123329163,-0.073190167546272,-0.30008667707443,0.47048512101173,0
-0.25216925144196,0.5801637172699,-1.2227795124054,-0.072076894342899,-0.29959446191788,0.46892148256302,0
-0.24898833036423,0.57760226726532,-1.2278926372528,-0.070935718715191,-0.29906210303307,0.46737250685692,0
-0.24580425024033,0.5752757191658,-1.2333297729492,-0.069787785410881,-0.29847142100334,0.46585112810135,0
-0.24263668060303,0.57319939136505,-1.2391128540039,-0.068662092089653,-0.29783976078033,0.46434873342514,0
-0.23949456214905,0.57137227058411,-1.2452454566956,-0.067532300949097,-0.29717540740967,0.46285596489906,0
-0.23637396097183,0.56976139545441,-1.2516882419586,-0.066388286650181,-0.29645729064941,0.46138286590576,0
-0.23329663276672,0.56836313009262,-1.2584419250488,-0.065271660685539,-0.29568347334862,0.45993223786354,0
-0.23028689622879,0.56716173887253,-1.2654956579208,-0.064181819558144,-0.29488182067871,0.45848631858826,0
-0.22733724117279,0.56610864400864,-1.2727879285812,-0.063087753951549,-0.29404053092003,0.45704662799835,0
-0.22446697950363,0.56518769264221,-1.2803076505661,-0.062018685042858,-0.29313892126083,0.45562294125557,0
-0.22171622514725,0.56438225507736,-1.2880454063416,-0.061000920832157,-0.2922031879425,0.45420300960541,0
-0.21907579898834,0.56363868713379,-1.295930147171,-0.060004930943251,-0.29124319553375,0.45277771353722,0
-0.2165492773056,0.56294596195221,-1.3039503097534,-0.059029426425695,-0.29023176431656,0.45135816931725,0
-0.21417278051376,0.56231516599655,-1.3121259212494,-0.05810759216547,-0.28917464613914,0.44994768500328,0
-0.21193492412567,0.56170427799225,-1.3203949928284,-0.057231768965721,-0.28810176253319,0.44853085279465,0
-0.20982187986374,0.56108975410461,-1.3287239074707,-0.056375000625849,-0.28699627518654,0.4471116065979,0
-0.20784604549408,0.56048405170441,-1.3371289968491,-0.055551752448082,-0.28584557771683,0.44570276141167,0
-0.2059953212738,0.55985993146896,-1.345566034317,-0.054779477417469,-0.28467831015587,0.44429439306259,0
-0.20425641536713,0.55919003486633,-1.3539961576462,-0.05403409153223,-0.28349763154984,0.44287949800491,0
-0.20263224840164,0.55848276615143,-1.3624296188354,-0.053303144872189,-0.28228354454041,0.44146969914436,0
-0.20111393928528,0.55773079395294,-1.3708524703979,-0.052613154053688,-0.28104355931282,0.44006887078285,0
-0.19969511032104,0.55691534280777,-1.3792341947556,-0.051962725818157,-0.27979961037636,0.43866348266602,0
-0.19837832450867,0.55604135990143,-1.3875815868378,-0.051321361213922,-0.27853685617447,0.43725734949112,0
