jointFR1,jointFR2,jointFR3,force
6.004292358127521,5.716136289671412,7.244716970764566,6.150612067662049
5.671015037294045,5.4015463987706545,6.832435991827378,5.808374772981031
5.355719388339484,5.103885063488613,6.462125355498561,5.484624028239563
5.0574446221651606,4.822248627611921,6.153887349702481,5.178371548762375
4.775281106960287,4.555781533110757,5.859612435347337,4.888681683483071
4.50836764790973,4.303673762865897,5.578679364214366,4.614668615856048
4.255888911477388,4.065158419299722,5.310494341319958,4.355493713538789
4.017072986583186,3.8395094316901215,5.05448981490491,4.110363018939359
3.7911890753997883,3.626039385329861,4.810123319701956,3.8785248731441215
3.5775453068816128,3.4240974660572405,4.576876371136531,3.659267666138239
3.3754866665046435,3.233067514027864,4.354253408218977,3.451917706608125
3.184393036042037,3.0523661809229927,4.141780782985053,3.2558372049715514
3.0036773375285692,2.881441185098376,3.9390057944358756,3.0704223636187344
2.832783775877657,2.7197696594694416,3.745495765018676,2.937680786266471
2.671186174908788,2.5668565872052325,3.560837157775853,2.816162051932976
2.5183864018217514,2.4222333205652467,3.384634732372289,2.700167577640156
2.373912875417747,2.2854561784612897,3.2165107382896236,2.589448785787975
2.2373191536171957,2.156105118561112,3.056104143551518,2.4837682399235645
2.1081825960604768,2.0337824799728947,2.903069897415928,2.382899146096218
1.9861030978017447,1.9181117927601,2.769262297763434,2.2866248765205985
1.8785586946223203,1.8087366507354248,2.6723902718752868,2.1947385145502016
1.8126650134051348,1.7112361884081901,2.585700570470297,2.10704242000777
1.748999913514589,1.630949605865139,2.5275293621169936,2.0233478139620233
1.6874887990856804,1.5542831070468097,2.4796562938158306,1.9434743820807683
1.6280595624801617,1.4810759011820507,2.432760860021283,1.8672498957294221
1.570642501288155,1.411174298182452,2.3868195733863757,1.7945098500211034
1.5151702381056882,1.3551721549019233,2.341809638529557,1.7250971180600072
1.4615776429947889,1.3088759425241145,2.2977089277328795,1.6588616206536644
1.4098017585359641,1.2641418898450552,2.2544959575942394,1.5956600108021208
1.3597817273859358,1.220917728659055,2.21214986659397,1.535355372303006
1.3114587222564424,1.1791529339118545,2.1706503935377945,1.4778169318410532
1.264775878232818,1.1387986655677036,2.1299778568397514,1.4229197839588532
1.2196782273537592,1.0998077124200938,2.090113134610278,1.3705446283326421
1.1761126353763824,1.062134437780788,2.052655388852476,1.3205775188026643
1.13402774065324,1.0257347269840558,2.0225894455544866,1.27290962363231
1.093373895050434,0.9905659366451234,1.9930273191957788,1.2274369964937182
1.054103106838369,0.956586845613935,1.9639591248259078,1.1840603577000264
1.016168985489004,0.923757607567308,1.9353752093478296,1.1426848852259062
0.9795266883156795,0.8920397051844993,1.9072661450651396,1.1032200150785225
0.9441328688937844,0.8613959058530365,1.8796227234347365,1.0655792506006485
0.9099456272025757,0.8317902188535113,1.8524359490177396,1.0296799803063794
0.8769244614305107,0.8031878539737132,1.8256970336217586,0.995443303867748
0.845030221388373,0.7755551815041912,1.7993973906278686,0.9627938658876423
0.8169905398536771,0.748859693568954,1.7735286294958879,0.9316596971107105
0.8019305739400683,0.7230699667465477,1.7480825504417927,0.9019720627395376
0.7871686780746061,0.6981556259382975,1.7230511392813315,0.8736653175382517
0.7726980319623821,0.6740873094419415,1.6984265624341157,0.8466767674199376
0.7585120041635034,0.6508366351902883,1.6742011620826798,0.8209465372278193
0.7446041458243347,0.6283761681159026,1.6503674514811983,0.7964174444331409
0.7309681846453248,0.6066793886041222,1.626918110408748,0.7730348784850787
0.717598019075807,0.5857206619980089,1.6038459807621854,0.750746685559844
0.7044877127265647,0.5654752091200106,1.5811440622838933,0.7295030584674593
0.6916314889913413,0.5459190777763603,1.5588055084198167,0.7092564314854779
0.6790237258688488,0.5270291152113208,1.536823622303386,0.6899613798992571
0.6666589509771824,0.5126439387763262,1.5151918528610688,0.6715745240382321
0.6545318367528887,0.5034472228749369,1.4939037910354616,0.6540544376070767
0.6426371958272628,0.4944305933217213,1.4729531661219701,0.6373615601196122
0.6309699765727589,0.48558994971261177,1.4523338422152747,0.6214581132519399
0.6195252588127027,0.47692130526024396,1.4320398147619096,0.6063080209394662
0.6087667998587676,0.46842078300496676,1.4120652072154225,0.5918768330503401
0.5999326379173497,0.4600846121696291,1.392404267790702,0.5781316524753123
0.5912438046155117,0.451909124652279,1.3730513663141868,0.5650410654811799
0.5826975278123713,0.44389075165115394,1.354000991166784,0.5525750751818215
0.5742910980152849,0.4360260204165824,1.335247746316444,0.5407050379873486
0.5660218667095072,0.4283115511246413,1.3167863484374358,0.5294036028981508
0.5578872447387432,0.4207440538676342,1.2986116241134864,0.5186446535165602
0.5498847007348896,0.4133203257566616,1.2807185071220377,0.5084032526545548
0.5420117595953231,0.40603724813175496,1.2631020357969742,0.4986555894213714
0.5342660010061504,0.39889178387523644,1.2457573504672717,0.48937892868006855
0.526645058009893,0.3918809748241489,1.228679690969102,0.48055156276707045
0.5191466156161317,0.3850019392777769,1.2118643942290195,0.47215276537344253
0.5117684094536904,0.378251869596442,1.1953068919159366,0.46416274749118697
0.5045082244629864,0.37162802988792315,1.1790027081596743,0.45656261533217196
0.4973638936272266,0.3651277537779993,1.1629474573339555,0.4493343301314386
0.4903332967411704,0.3587484422617602,1.1471368419017798,0.44246066975057663
0.4834143592162307,0.3524875616324757,1.131566650321189,0.43592519200063595
0.4766050509207228,0.34634264148493893,1.1162327550095075,0.42971219960763646
0.46990338505411616,0.3403112727903382,1.1011311103642014,0.4238067067471838
0.4633074170541815,0.33439110603982675,1.0862577508385693,0.4181944070779881
0.4568152435359661,0.32857984945408253,1.0716087890705361,0.4128616432072155
0.4504250012615675,0.3228752672562602,1.0571804140628829,0.4077953775236117
0.4441348661397094,0.3172751780058454,1.0429688894133031,0.4029831643371934
0.4379430522541611,0.3117774529910296,1.0289705515927297,0.398413123267048
0.4318478109200726,0.30638001467731274,1.015181808270428,0.39407391382139245
0.425847429767332,0.30108083521014656,1.0015991366844106,0.38995471111654195
0.41994023185007967,0.29587793496951537,0.9882190820557655,0.38604518268382554
0.41412457478154713,0.2907693811744387,0.9750382560455484,0.38233546631576437
0.4083988498934133,0.2857532865354658,0.9620533352529306,0.3788161489050072
0.40276148141890217,0.28082780795330936,0.9492610597533375,0.375478246231598
0.3972109256988698,0.27599114526184215,0.9366582316753591,0.3723131836561348
0.3917456704101558,0.2712415400137544,0.9242417138152501,0.3713774975673122
0.38636423381549906,0.26657727430723926,0.912008428287882,0.3732814992475655
0.38106516403433993,0.2619966696521379,0.8999553552130442,0.3750521553847035
0.37584703833385674,0.2574980858740456,0.8880795314360272,0.37669614555526565
0.3707084624396036,0.2530799200549347,0.876378049281463,0.378219838517478
0.36564806986514115,0.24874060550891525,0.8648480553394202,0.3796293063251558
0.3606645212600689,0.2444786107918045,0.8534867492828009,0.38093033780653485
0.35575650377589124,0.24029243874323664,0.8422913827150984,0.38212845143650365
0.35092273044916567,0.23618062556008995,0.8312592580476257,0.3832289076294393
0.346161939601402,0.2321417399000612,0.8203877274053373,0.38423672047862156
0.341472894255198,0.22817438201426404,0.8096741915604067,0.38515666896704825
0.33685438156611464,0.2242771829077735,0.7991160988927462,0.3859933076733555
0.33230521226981136,0.22044880352708024,0.7887109443766771,0.3867509769954869
0.32782422014397583,0.21668793397346392,0.7784562685929948,0.3874338129137457
0.32341026148460084,0.21299329274132933,0.7683496567656871,0.3880457563138887
0.31906221459617284,0.20936362598059327,0.7583887378225949,0.38859056189000596
0.3147789792953538,0.20579770678224135,0.748571183479324,0.3890718066460256
0.31055947642774995,0.20229433448621276,0.738894707345743,0.38949289801386955
0.30640264739737527,0.19885233401080166,0.729357064054418,0.38985708160545307
0.3023074537084302,0.1954705552027995,0.7199560484103595,0.3901674486149589
0.2982728765190287,0.19214787220763013,0.7106894945614772,0.39042694288709
0.29429791620651824,0.18888318285875988,0.7015552751891561,0.39063836766628357
0.2903815919440503,0.18567540808569566,0.6925513007183839,0.39080439204122086
0.2865229412880675,0.18252349133990758,0.6836755185468861,0.3909275570982971
0.28272101977638797,0.17942639803804145,0.6749259122927291,0.3910102817971367
0.27897490053657414,0.17638311502180876,0.6663005010598824,0.3910548685806181
0.27528367390428643,0.17339265003397014,0.6577973387212368,0.3910635087313441
0.2716464470513296,0.17045403120984476,0.649414513218598,0.39103828748594094
0.26806234362311065,0.16756630658380695,0.6411501458791842,0.390981188918064
0.26453050338523504,0.16472854361024675,0.6330023907481765,0.390894100600502
0.2610500818789777,0.1619398286984945,0.6249694339368832,0.3907788180563079
0.2576202500853724,0.1591992667612288,0.617049492986087,0.3906370490084321
0.2542401940976733,0.15650598077590377,0.6092408162441696,0.39047041743691613
0.25090911480194744,0.15385911135875147,0.6015416822596069,0.3902804674523008
0.2476262275655686,0.15125781635093088,0.593950399187452,0.39006866699350196
0.2443907619333849,0.14870127041641318,0.5864653042094261,0.38983641135805613
0.24120196133134567,0.14618866465120567,0.5790847629672573,0.3895850265722661
0.23805908277737456,0.14371920620353457,0.5718071690089099,0.3893157726084535
0.23496139659928642,0.14129211790462065,0.5646309432473628,0.3890298464561899
0.2319081861595495,0.13890663790969454,0.5575545334316072,0.38872838505408114
0.22889874758670162,0.1365620193489137,0.5505764136295379,0.3884124680883757
0.22593238951323533,0.1342575299878515,0.5436950837224284,0.38808312066439254
0.22300843281977148,0.1319924518972489,0.5369090689106832,0.3877413158564944
0.22012621038534821,0.12976608113172278,0.5302169192305797,0.3873879771420694
0.21728506684365534,0.12757772741714074,0.5236172090817064,0.3870239807247514
0.21448435834505167,0.12542671384638265,0.5171085367648269,0.3866501577518624
0.21172345232420628,0.12331237658321753,0.5106895240298974,0.3862672964308398
0.20900172727320995,0.12123406457403857,0.5043588156339791,0.3858761440492078
0.2063185725200085,0.11934673254606337,0.4981150789087907,0.3854774089024322
0.2036733880120127,0.11769132826993861,0.49195700333765746,0.3850717621338141
0.20106558410474584,0.11606079132641084,0.48588330014161674,0.3846598394903862
0.19849458135539236,0.11445471613160291,0.47989270187444877,0.3842422429986031
0.19595981032111626,0.11287270443312364,0.47398396202640836,0.3838195425634382
0.193460711362022,0.11131436515889187,0.46815585463644016,0.383392277494346
0.19099673444863344,0.10977931426958482,0.4624071739126625,0.38296095796139007
0.18856733897377123,0.10826717461460672,0.4567367338609174,0.38252606638468756
0.18617199356871214,0.10677757579148522,0.45114336792118537,0.3820880587601815
0.1838101759235171,0.10531015400859761,0.4456259286116697,0.3816473659246147
0.18148137261141853,0.10386455195113814,0.44018328718036304,0.38120439476245604
0.17918507891716062,0.10244041865023806,0.4348143332639125,0.38075952935739743
0.17692079866918917,0.10103740935515076,0.42951797455360485,0.38031313209092765
0.1746880440755909,0.0996551854084215,0.4242931364682987,0.37986554469037925
0.1724863355636854,0.09829341412395926,0.41913876183413445,0.3794170892287294
0.17031520162317432,0.09695176866793404,0.41405381057086177,0.37896806907833847
0.1681741786527578,0.09562992794242337,0.40903725938461943,0.378518769820713
0.16606281081012744,0.09432757647173423,0.404088101467021,0.37806946011428
0.163980649865251,0.09304440429133015,0.3992053462003873,0.3776203925220786
0.1619272550568641,0.09178010683929377,0.3943880188689868,0.37717180430118014
0.1599021929520878,0.0905343848502575,0.3896351603761372,0.3767239181555748
0.1579050373090931,0.08930694425173863,0.38494582696703294,0.3762769429541776
0.15593536894273538,0.08809749606281486,0.38031908995715913,0.3758310744155382
0.15399277559308444,0.08690575629507874,0.37575403546617014,0.3753864957607653
0.15207685179677752,0.08573144585581266,0.37124976415709443,0.3749433783361058
0.150187198761125,0.08457429045332637,0.36680539098075005,0.3745018822065579
0.1483234242409003,0.08343402050440091,0.36242004492524904,0.3740621567218334
0.14648514241774807,0.08231037104378419,0.3580928687704674,0.37362434105592857
0.14467197378214494,0.08120308163568762,0.35382301884737544,0.3731885647214984
0.14288354501785164,0.08011189628722953,0.3496096648021101,0.37275494806018505
0.14111948888879405,0.07903656336377857,0.3454519893646857,0.37232360270999154
0.13937944412831518,0.07797683550614692,0.34134918812223414,0.37189463205074613
0.13766305533073916,0.07693246954958716,0.33730046929667656,0.37146813162865955
0.13596997284519258,0.07590322644454844,0.33330505352672013,0.37104418956092033
0.13429985267162767,0.07488887117914528,0.3293621736540904,0.370622886921247
0.13265235635899472,0.07388917270329814,0.32547107451389756,0.37020429810725786
0.1310271509055126,0.07290390385450357,0.3216310127290498,0.36978849119049506
0.12942390866098663,0.0719328412851929,0.31784125650862016,0.3693755282498925
0.12784230723112555,0.07097576539164124,0.31410108545007964,0.36896546568944055
0.1262820293838101,0.07003246024438653,0.3104097903453158,0.3685583545407808
0.12474276295726716,0.06910271352012437,0.30676667299034555,0.36815424075140635
0.12322420077010424,0.06818631643503931,0.3031710459986501,0.36775316545913916
0.12172604053316144,0.06728306367954068,0.29962223261804666,0.367355165253507
0.12024798476313767,0.06639275335436584,0.2961195665510221,0.3669602724246195
0.11878974069795012,0.06551518690801988,0.2926623917784539,0.366568515200124
0.11735102021378688,0.06465016907551896,0.2892500623866454,0.366179917970779
0.1159315397438134,0.06379750781840471,0.2858819423976031,0.3657945015051768
0.1145310201984947,0.06295701426600092,0.2825574056024871,0.36541228315410934
0.11314918688749645,0.06212850265788211,0.2792758353981668,0.3650332770450545
0.11178576944312835,0.06131179028752459,0.27603662462681533,0.36465749426724103
0.11044050174529521,0.0605066974471134,0.27283917541848,0.36428494304772296
0.10911312184792117,0.05971304737347577,0.26968289903656295,0.3639156289188784
0.10780337190681369,0.05893066619511639,0.2665672157261523,0.3635495548777319
0.10651099810893497,0.05815938288032846,0.2634915545651457,0.36318672153747633
0.10523575060304914,0.05739902918635348,0.26045535331810354,0.3628271272715551
0.10397738343171443,0.05664943960956764,0.2574580582927788,0.3624707683506485
0.10273565446459017,0.05591045133667044,0.2544991241992658,0.3621176390728953
0.1015103253330295,0.055181904196850706,0.251578014011715,0.3617677318876622
0.10030116136592943,0.0544636406149101,0.2486941988325586,0.36142103751316323
0.09910793152680997,0.05375550556531966,0.24584715775919808,0.36107754504820866
0.09793040835209604,0.053057346527189686,0.24303637775310105,0.360737242078365
0.09676836789057511,0.05236901344013167,0.2402613535112592,0.360400114776782
0.09562158964400505,0.05169035866099131,0.23752158733995832,0.36006614799993675
0.09448985650884754,0.05102123692143412,0.23481658903081448,0.3597353253785317
0.09337295471910191,0.050361505286363295,0.23214587573902978,0.35940762940377247
0.09227067379021615,0.04971102311315162,0.22950897186382324,0.35908304150924664
0.09118280646405164,0.04906965201166902,0.22690540893099187,0.35876154214860534
0.09010914865487893,0.04843725580508845,0.22433472547756117,0.3584431108692442
0.0890494993963826,0.047813700491451894,0.22179646693848176,0.3581277263821758
0.08800366078965355,0.04719885420598041,0.21929018553533108,0.3578153666282725
0.08697143795214773,0.046592587184111134,0.21681544016698262,0.35750600884104544
0.08595263896759094,0.04599477172524613,0.21437179630219982,0.35719962960613283
0.08494707483680942,0.04540528215719647,0.2119588258741214,0.3568962049176442
0.08395455942946715,0.044823994801306666,0.20957610717659514,0.3565957102315154
0.08297490943669031,0.04425078793824505,0.2072232247623298,0.3562981205160155
0.08200794432456072,0.04368554177444489,0.20489976934282428,0.35600341029953897
0.08105348628846012,0.04312813840918289,0.20260533769004385,0.35571155371581464
0.08011136020824722,0.04257846180228064,0.2003395325398054,0.3554225245466547
0.07918139360425071,0.042036397742416076,0.19810196249684098,0.3551362962623601
0.07826341659406114,0.04150183381603145,0.19589224194150745,0.3548528420598984
0.07735726185010519,0.04097465937682565,0.19370999093810748,0.35457213489895456
0.07646276455798642,0.04045476551581795,0.19155483514479488,0.3542941475359642
0.07557976237557659,0.03994204503197091,0.18942640572503122,0.35401885255622423
0.07470809539284251,0.03943639240336122,0.18732433926056302,0.3537462224041704
0.07384760609239321,0.03893770375888622,0.1852482776658959,0.3534762294119167
0.07299813931073296,0.03844587685049555,0.18319786810422878,0.353208845826137
0.0721595422002058,0.037960811025936125,0.18117276290482898,0.35294404383337097
0.07133166419161777,0.03748240720200008,0.17917261948181396,0.35268179558383217
0.07051435695752305,0.037010567838265895,0.177197100254318,0.3524220732137897
0.06970747437616082,0.0365451969113208,0.17524587256801571,0.35216484886659727
0.06891087249602978,0.03608619988945633,0.17331860861797477,0.3519100947124303
0.06812440950108785,0.035633483707825875,0.17141498537281863,0.3516577829668025
0.06734794567656414,0.03518695674405564,0.16953468450016929,0.35140788590791605
0.06658134337537171,0.03474652879429885,0.167677392293347,0.3511603758929073
0.06582446698510876,0.03431211104972526,0.16584279959930792,0.3509152253730421
0.06507718289563692,0.03388361607343576,0.16403060174779083,0.35067240690791246
0.06433935946722527,0.033460957777794786,0.16224049848165434,0.3504318931786857
0.06361086699924891,0.033044051402170815,0.16047219388838196,0.35019365700045535
0.06289157769943149,0.03263281349107766,0.15872539633273153,0.34995767133373645
0.06218136565362092,0.032227161872707966,0.1569998183905117,0.34972390929514985
0.06148010679608793,0.03182701563785123,0.15529517678346005,0.34949234416733876
0.06078767888033754,0.03143229511918866,0.15361119231520814,0.34926294940815683
0.06010396145042331,0.03104292187095703,0.15194758980830825,0.3490356986591586
0.0594288358127549,0.030658818648974795,0.15030409804230627,0.3488105657534414
0.05876218500838933,0.030279909391022486,0.1486804496928409,0.34858752472285925
0.05810389378579681,0.029906119197571357,0.1472732001046435,0.34836654980465176
0.05745384857409195,0.029537374312852027,0.1468306649842508,0.34814761544751016
0.05681193745672162,0.029173602106258245,0.14639086530526124,0.3479306963171195
0.05617805014560075,0.02881473105407728,0.14595376303354302,0.3477157673011946
0.05555207795568754,0.028460690721542115,0.1455193213277295,0.3475028035140494
0.05493391377998989,0.02811141174519799,0.14508750449415508,0.3472917803007094
0.054323452064994796,0.027766825815578267,0.14465827794345243,0.34708267324060693
0.05372058878651294,0.02742686566018221,0.14423160814873204,0.3468754581508732
0.053125221425930506,0.027091465026750583,0.14380746260531696,0.3466701110892494
0.052537248946860814,0.026760558666831746,0.14338580979194915,0.3464666083566439
0.051956571772188126,0.026434082319633512,0.142966619133432,0.3462649264993485
0.051383091761496504,0.026111972696155006,0.14254986096465982,0.34606504231093704
0.05081671218887645,0.025794167463593087,0.1421355064959693,0.34586693283386305
0.05025733772110243,0.025480605230018605,0.1417235277797877,0.34567057536077295
0.049704874396174395,0.025171225529316443,0.14131389767850933,0.3454759474355543
