jointMR1,jointMR2,jointMR3,force
6.1789058861276684,5.5342190171043875,7.440135661392582,6.150612067662049
5.8344381970579855,5.229307317392108,7.0235482754262755,5.808374772980989
5.5085765069931485,4.940826742435491,6.62948049891491,5.484624028452795
5.200326309279084,4.667899493404956,6.256728076452606,5.178371549003545
4.908746056343704,4.409694512010746,5.904150900736021,4.888681683298179
4.63294434347277,4.16542499491707,5.570669600699515,4.614668614632044
4.372077242262202,3.934346040264029,5.255262311003718,4.3554937105949145
4.12534577579381,3.715752419277478,4.956961613240626,4.110363013602281
3.891993528003836,3.5089764663201093,4.674851639730339,3.8785248648085835
3.671304380113883,3.3133860810900893,4.408065331269462,3.659267654314985
3.4626003673725587,3.128382837007974,4.1557818406501035,3.4519176909605167
3.2652396497149514,2.9534001901493,3.917224074203241,3.2558371853423083
3.07861459028668,2.787901783379978,3.696561053963717,3.070422340048033
2.902149936100847,2.631379840635543,3.525542998197878,2.8951015414034433
2.7353010954007897,2.502353360953619,3.398965918276002,2.729333647340562
2.5775525065898606,2.3844534533977026,3.276697319369903,2.5726063662787153
2.4284160938624533,2.2718683306334646,3.15859260667351,2.424434722181966
2.2874298049290984,2.1643619876156515,3.0445120144860995,2.2843596012134912
2.167767077821805,2.0617088403391857,2.9343204450457447,2.151946375650739
2.0915494373622936,1.963693266672518,2.8278873127533215,2.032384155718871
2.017911489619314,1.8701091674060382,2.7250863936058827,1.9330447568003852
1.946766865337408,1.780759546625845,2.625795679664294,1.8383047830469579
1.8780320765154073,1.6954561105623072,2.5298972383860225,1.7479555858281943
1.8116264202933372,1.6140188841003238,2.4372770766596505,1.6737053332040328
1.7474718860539173,1.5362758441739224,2.3478250093832482,1.615130201952834
1.6854930656305314,1.4620625693020797,2.265122341519615,1.5585348885833683
1.6256170665172378,1.391221904555338,2.220642608269932,1.5038531362029137
1.567773427979942,1.32360364127405,2.1788215137070583,1.4510208978011123
1.511894039971229,1.2590642108889885,2.137842384349234,1.399976262545589
1.4579130647547305,1.2168458870586927,2.097685459441986,1.3506593845421255
1.4057668611479928,1.176433002562172,2.058331544534283,1.3030124139765173
1.3553939112960034,1.1373781374842238,2.0197619920446974,1.256979430558077
1.3067347498904032,1.09963586741182,1.9882821132543105,1.2125063791874509
1.259731895752373,1.063162282408155,1.9591558337222559,1.1695410077740502
1.2143297856998838,1.027914936573199,1.9305203494329184,1.1280328071308954
1.1704747106227327,0.9938527992858606,1.902365929214744,1.0879329528771615
1.1281147536913507,0.9609362080714898,1.8746830728950452,1.0491942492810367
1.0871997306278647,0.9291268230403997,1.8474625048165878,1.0117710749778004
1.04768113197032,0.8983875828448555,1.8206951675611514,0.9756193305002323
1.0095120672633016,0.8686826621037895,1.7943722158728568,0.9406963875605707
0.972647211110429,0.8399774302461884,1.768485010774313,0.92497238819563
0.9370427510263966,0.8122384117257528,1.7430251138688957,0.909760392592089
0.9094114427227851,0.7854332475610013,1.7179842818227151,0.8948915443560597
0.8925828876105055,0.7595306581565735,1.6933544610200681,0.8803558029705311
0.8760856396888224,0.7345004073629258,1.6691277823863926,0.8661434862486822
0.8608848969460638,0.710313267733077,1.6452965563729698,0.852245255969554
0.8482347985179925,0.6880621517644276,1.6218532680978213,0.8386521041225545
0.8357980996154948,0.6754928616167943,1.5987905726374563,0.8253553397343659
0.8235705675083647,0.6631734566119082,1.5761012904643181,0.812346576252972
0.8115480697580377,0.6510981362340126,1.5537784030249633,0.7996177194646357
0.7997265714205501,0.6392612645003568,1.5318150484541913,0.787160955920718
0.7881021323378135,0.6276573643561367,1.510204517420514,0.7749687418522427
0.7766709045141725,0.6162811122853284,1.4889402490985217,0.7630337925510767
0.7654291295753206,0.6051273331285237,1.4680158272638593,0.751349072197526
0.7543731363067562,0.594190995099253,1.4474249765066893,0.7399077841150274
0.7434993382690631,0.5834672049906489,1.427161558559658,0.7287033614334674
0.732804231487399,0.5729512035646436,1.4072195687365279,0.7177294581434661
0.7222843922126673,0.5626383611162308,1.3875931324777793,0.7069799405247352
0.7119364747519413,0.5525241732056346,1.368276501999613,0.6964488789323615
0.7017572093657976,0.5426042565515337,1.3492640530429134,0.6861305399255743
0.6917434002302961,0.532874345078781,1.330550281718859,0.6760193787242276
0.6818919234614307,0.5233302861143332,1.3121298014479783,0.6661100319788754
0.6721997251999468,0.5139680367253733,1.2939973399895695,0.6563973108409391
0.6626638197545034,0.5047836601938612,1.276147736558507,0.6468761943200481
0.653281287801224,0.49577332262199403,1.258575939026565,0.6375418229162091
0.6440492746377534,0.48693328966328675,1.2412770012054903,0.6283894925149912
0.6349649884900048,0.4782599233742104,1.2242460802091557,0.6194146485344343
0.6260256988698438,0.46974967918153454,1.207478433892213,0.610612880312878
0.6172287349820215,0.4613991029607294,1.1909694183627657,0.6019799157273835
0.6085714841787239,0.45320482822097397,1.1747144855666554,0.5935116160328672
0.6000513904601692,0.4451635733925048,1.158709180941055,0.5852039709124999
0.5916659530197323,0.4372721392122232,1.1429491411351305,0.5770530937303352
0.5834127248321368,0.42952740620363994,1.1274300917956146,0.5690552169775225
0.5752893112832986,0.4219263322474128,1.1121478454152163,0.5612066879038428
0.567293368840464,0.4144659502388788,1.097098299241852,0.5535039643266584
0.559422603761323,0.40714336582913924,1.082277433246766,0.5459436106097163
0.5516747708408326,0.3999557552463965,1.0676813081496606,0.5385222938045727
0.5440476721945233,0.3929003631943806,1.0533060634990385,0.5312367799477201
0.5365391560771108,0.38597450082483353,1.0391479158060035,0.5240839305068026
0.5291471157352681,0.37917554378114793,1.0252031567298407,0.517060698969585
0.521869488293462,0.37250093031037435,1.011468151313748,0.5101641275696267
0.5147042536717867,0.36594815944092907,0.997939336269146,0.5033913441428667
0.5076494335347735,0.3595147892234437,0.9846132183070512,0.49673955910957784
0.5007030902701812,0.3531984350323053,0.9714863725150447,0.4902060625763934
0.493863325996816,0.34699676792553413,0.958555440778423,0.48378822155333595
0.4871282816004534,0.3409075130607463,0.9458171302441601,0.4774834772809955
0.4804961357969735,0.33492844816503986,0.9332682118263622,0.47128934266322114
0.4739651042218465,0.32905740205673206,0.9209055187519375,0.465203399800884
0.46753343854513896,0.32329225321695965,0.9087259451452459,0.4592232976224652
0.46119942561123545,0.3176309284092387,0.8967264446505386,0.45334674960740706
0.4549613866025014,0.31207140134515454,0.8849040290910356,0.4475715315983379
0.4488176762261377,0.3066116913944299,0.8732557671635243,0.44189547969845294
0.44276668192350166,0.3012498623376897,0.8617787831674075,0.43631648825048963
0.43680682310119706,0.29598402116031064,0.8504702557671576,0.4308325078938949
0.4309365503832553,0.29081231688580744,0.8393274167871712,0.4254415436969238
0.4251543448837568,0.28573293944727296,0.8283475500380532,0.4201416533605523
0.4194587174992599,0.28074411859544646,0.8175279901733902,0.4149309454912197
0.41384820822042856,0.27584412284204674,0.8068661215761015,0.40980757793954675
0.40832138546226926,0.27103125843705556,0.7963593772734929,0.4047697562022942
0.40287684541240704,0.2663038683786968,0.7860052378801584,0.39981573188495045
0.3975132113968514,0.2616603314549012,0.7758012305679116,0.3949438012224425
0.39222913326271797,0.25709906131509985,0.765744928061949,0.39015230365557546
0.38702328677739306,0.2527759888807749,0.7558339476624762,0.38543962046090885
0.3818943730436426,0.24917987022794097,0.7460659502910529,0.3808041734318755
0.3768411179301855,0.2456396218073036,0.7364386395609366,0.3762444236090405
0.37186227151726464,0.24215428296535624,0.726949760870728,0.3717588700574922
0.36695660755676807,0.2387229118081029,0.7175971005206432,0.36734604868943965
0.3621229229464631,0.23534458477420112,0.7083784848507608,0.3630045311301736
0.3573600372179243,0.23201839621946324,0.6992917794006122,0.35873292362562775
0.352666792037748,0.22874345801237073,0.6903348880895044,0.3545298659898526
0.34804205072165884,0.22551889914026924,0.6815057524169799,0.3503940305907825
0.34348469776112917,0.22234386532592088,0.6728023506828478,0.3463241213727527
0.33899363836214136,0.2192175186541035,0.6642226972262231,0.34231887291427826
0.33456779799573766,0.2161390372079548,0.6557648416830435,0.3383770495196823
0.3302061219600124,0.21310761471477052,0.6474268682615412,0.3344974443432096
0.3259075749532122,0.2101224602009752,0.6392068950351646,0.3306788785443266
0.3216711406576218,0.2071827976559929,0.6311030732524661,0.32692020047296155
0.31749582133392346,0.20428786570475477,0.6231135866634772,0.3232202848834905
0.3133806374257256,0.20143691728858865,0.6152366508621221,0.3195780321763278
0.3093246271739694,0.19862921935424438,0.6074705126442159,0.31599236766602307
0.3053268462409293,0.19586405255081596,0.5998134493806275,0.31246224087482
0.3013863673435322,0.19314071093433116,0.5922637684051835,0.30898662485066986
0.29750227989573064,0.19045850167978362,0.5848198064169143,0.3055645155087372
0.2936736896596721,0.1878167448003934,0.57747992889625,0.30219493099547823
0.2898997184054146,0.1852147728738861,0.5702425295347868,0.29887691107440556
0.28617950357894817,0.18265193077558783,0.5631060296782566,0.29560951653269624
0.28251219797828775,0.18012757541814178,0.5560688777823446,0.2923918286078291
0.27889696943741143,0.17764107549765568,0.5491295488810102,0.2892229484334775
0.2753330005178244,0.17519181124609706,0.5422865440669729,0.28610199650391066
0.2718194882075358,0.17277917418975952,0.5355383899840453,0.2830281121561906
0.2683556436272438,0.17040256691362654,0.5288836383309918,0.280000453069482
0.2649406917435271,0.16806140283146842,0.5223208653766112,0.2770181947808173
0.26157387108885255,0.16575510596150933,0.5158486714857473,0.27408053021669093
0.2582544334882086,0.16348311070750943,0.5094656806559406,0.2711866692398786
0.25498164379218474,0.1612448616451102,0.5031705400644388,0.26833583821090606
0.25175477961632065,0.15903981331329742,0.4969619196253021,0.2655272795636116
0.24857313108655363,0.15686743001083897,0.4908385115563354,0.2627602513942728
0.24543600059060022,0.15472718559756043,0.484799029955596,0.26003402706378886
0.2423427025351105,0.1526185633003253,0.4788422103872296,0.25734789481242987
0.23929256310843994,0.15054105552359087,0.47296680947639413,0.2547011573866837
0.23628492004888837,0.1484941636644143,0.4671716045130385,0.2520931316777547
0.23331912241825953,0.14647739793178816,0.46145539306431194,0.2495231483712799
0.2303945303805992,0.1444902771701877,0.45581699259538366,0.2469905516078523
0.22751051498597505,0.1425323286872161,0.45025524009845896,0.24449469865395382
0.22466645795916373,0.14060308808523686,0.4447689917297879,0.24203495958291776
0.2218617514931172,0.13870209909688713,0.43935712245446323,0.2396107169655557
0.21909579804708104,0.13682891342436776,0.43401852569881316,0.2372213655700993
0.2163680101492445,0.13498309058240837,0.4287521130102008,0.23486631207112102
0.21367781020380303,0.13316419774481258,0.42355681372404463,0.23254497476711
0.2110246303023187,0.13137180959448552,0.4184315746378826,0.23025678330639537
0.20840791203926773,0.12960550817685396,0.4133753596923062,0.2280011784211184
0.20582710633166648,0.12786488275658953,0.40838714965859424,0.2257776116689688
0.20328167324267096,0.12614952967754783,0.403465941832885,0.2235855451824113
0.20077108180904854,0.12445905222584086,0.39861074973672417,0.22142445142513922
0.19829480987242246,0.12279306049596023,0.393820602823838,0.21929381295550232
0.1958523439141934,0.12115117125987285,0.389094546192976,0.21719312219666634
0.1934431788940449,0.11953300783901277,0.3844316403066812,0.21512188121327153
0.1910668180919417,0.1179381999790935,0.3798309607158441,0.21307960149436594
0.1887227729535339,0.1163663837276705,0.37529159778989984,0.21106580374239792
0.1864105629388805,0.11481720131438211,0.37081265645254025,0.2090800176680622
0.18412971537441014,0.11329030103380172,0.3663932559228005,0.2071217817907994
0.18187976530803826,0.11178533713083483,0.3620325294614024,0.2051906432447596
0.17966025536736202,0.11030196968859707,0.3577296241222261,0.20328615759004512
0.17747073562085747,0.10883986451871075,0.3534837005087892,0.20140788862905715
0.1753107634420045,0.10739869305395927,0.34929393253561636,0.19955540822777548
0.17317990337626812,0.10597813224324071,0.3451595071943898,0.19772829614180887
0.17107772701086604,0.10457786444876382,0.3410796243247636,0.19592613984705928
0.16900381284725463,0.10319757734543017,0.3370534963897358,0.19414853437484908
0.16695774617626752,0.10183696382234964,0.3330803482554783,0.19239508215136455
0.16493911895584223,0.10049572188643568,0.32915941697551254,0.1906653928412788
0.16294752969127324,0.09917355456803034,0.3252899515791414,0.18895908319541743
0.1609825833179299,0.09787016982850893,0.321471212864034,0.18727577690233782
0.15904389108638084,0.09658528046981729,0.31770247319287215,0.1856151044436991
0.15713107044986768,0.0953186040458931,0.31398301629396297,0.1839767029533015
0.1552437449540714,0.09406986277592788,0.3103121370657347,0.18236021607967973
0.15338154412911803,0.09283878345942381,0.3066891413850219,0.18076529385214044
0.1515441033837705,0.09162509739300317,0.30311334591905825,0.17919159255013514
0.14973106390175508,0.090428540288929,0.29958407794109454,0.17763877457586752
0.14794207254017294,0.08924885219529521,0.2961006751495614,0.17610650833003383
0.14617678172994758,0.08808577741784751,0.29266248549069585,0.17459446809060178
0.14443484937826162,0.08693906444339644,0.2892688669845589,0.17310233389453628
0.14271593877293615,0.0858084658647853,0.2859191875543672,0.1716297914223814
0.14101971848870798,0.08469373830737598,0.2826128248590656,0.1701765318856153
0.13934586229536183,0.08359464235701797,0.2793491661290739,0.16874225191669318
0.1376940490676739,0.08251094248946583,0.27612760800513336,0.1673266534617004
0.13606396269712645,0.08144240700121114,0.2729475563801895,0.1659294436755382
0.13445529200535236,0.08038880794169745,0.2698084262442453,0.16455033481956782
0.13286773065927115,0.07934992104688482,0.2667096415321175,0.16318904416164243
0.13130097708787763,0.07832552567413464,0.26365063497403995,0.1618452938784566
0.12975473440064653,0.07731540473838333,0.26063084794904734,0.16051881096014856
0.12822871030751654,0.07631934464957646,0.2576497303410823,0.15920932711708866
0.12672261704041868,0.07533713525133451,0.25470674039776875,0.1579165786887949
0.12523617127631442,0.07436856976082168,0.2518013445917948,0.15664030655491254
0.12376909406171024,0.07341344470979239,0.24893301748484897,0.1553802560482033
0.1223211107386161,0.0724715598867871,0.24610124159405689,0.15413617686948497
0.12089195087191548,0.07154271828045322,0.24330550726086808,0.15290782300447067
0.11948134817811684,0.07062672602396558,0.24054531252233713,0.15169495264245283
0.1180890404554554,0.0697233923405216,0.2378201629847536,0.15049732809678323
0.11671476951531651,0.06883252948988827,0.23512957169957005,0.14931471572710073
0.11535828111495167,0.0679539527159772,0.23247305904158222,0.1481468858632574
0.1140193248914588,0.06708748019542521,0.22985015258931218,0.14699361273090034
0.1126976542970003,0.0662329329871586,0.22726038700755202,0.1458546743786631
0.11139302653523162,0.06539013498291973,0.22470330393202254,0.1447298526069253
0.11010520249891464,0.06455891285873455,0.22217845185610385,0.14361893289809832
0.10883394670869068,0.06373909602730143,0.2196853860195962,0.14252170434839828
0.10757902725298824,0.06293051659128063,0.21722366829947015,0.14143795960106686
0.10634021572904143,0.062133009297465513,0.21479286710256318,0.14036749478100272
0.10511728718499597,0.06134641149181669,0.2123925572601888,0.13931010943076833
0.10391002006307923,0.060570563075340145,0.21002231992461384,0.13826560644793576
0.10271819614381253,0.059805306460791796,0.20768174246737248,0.13723379202373784
0.10154160049124367,0.059050486530190904,0.20537041837937342,0.13621447558299388
0.10038002139917801,0.05830595059312499,0.20308794717277134,0.13520746972527428
0.09923325033838859,0.05757154834582978,0.20083393428456375,0.13421259016727732
0.09810108190478312,0.0568471318310278,0.19860799098187942,0.1332296556863847
0.0969833137685098,0.056132555398509976,0.19640973426892616,0.1322584880653697
0.09587974662398185,0.055427675666443965,0.19423878679556528,0.1312989120382277
0.09479018414080168,0.05473235148339517,0.192094776767479,0.13035075523710304
0.09371443291556691,0.05404644389104474,0.1899773378579026,0.12941384814028536
0.09265230242453995,0.05336981608759073,0.18788610912088788,0.12848802402125015
0.09160360497716344,0.052702333391817735,0.18582073490607143,0.12757311889871756
0.0905681556704046,0.05204386320782206,0.1837808647749133,0.12666897148770728
0.0895457723439119,0.05139427499037835,0.18176615341838565,0.1257754231515635
0.08853627553596721,0.05075344021093442,0.17977626057607465,0.12489231785492919
0.0875394884402182,0.05012123232422255,0.1778108509566756,0.12401950211764724
0.08655523686317426,0.04949752673547342,0.1758695941598496,0.12315682496956586
0.08558334918245233,0.04888220076822131,0.1739521645994191,0.12230413790622902
0.0846236563057558,0.048275133632688316,0.1720582414278755,0.12146129484543003
0.08367599163057374,0.04767620639473619,0.17018750846217312,0.12062815208460999
0.08274019100458471,0.047085301945373914,0.16833965411078622,0.11980456825908115
0.08181609268675274,0.04650230497081054,0.16651437130200653,0.11899040430105634
0.08090353730910038,0.04592710192304189,0.16471135741345244,0.11818552339946767
0.08000236783914663,0.04535958099096077,0.16293031420277537,0.11738979096055513
0.07911242954299655,0.04479963207198012,0.161170947739534,0.11660307456920943
0.07823356994906927,0.04424714674415936,0.15943296833821718,0.11582524395105163
0.0773656388124529,0.043702018238823304,0.15771609049239466,0.11505617093523378
0.07650848807987345,0.0431641414136647,0.1560200328099728,0.11429572941794407
0.07566197185526641,0.042633412726320596,0.15434451794953685,0.11354379532660273
0.07482594636593898,0.04210973020841302,0.15268927255775733,0.11280024658473152
0.074000269929312,0.0415929934400453,0.1510540272078451,0.11206496307748436
0.07318480292023016,0.041083103524745035,0.14943851633902838,0.11133782661782332
0.07237940773882975,0.04057996306484496,0.14784247819704244,0.11061872091332746
0.07158394877895352,0.04008347613729335,0.14626565477560383,0.10990753153362011
0.07079829239710186,0.03959354826988565,0.1447077917588595,0.10920414587840194
0.07002230688191063,0.03911008641790925,0.1431686384647859,0.108508453146077
0.06925586242414514,0.03863299894119321,0.14164794778952827,0.10782034430295956
0.06849883108720128,0.03816219558155576,0.14014547615265482,0.10713971205304844
0.06775108677810338,0.037697587440641334,0.1386609834433148,0.1064664508083595
0.06701250521899024,0.037239086958140155,0.13719423296728417,0.105800456659801
0.06628296391908012,0.03678660789038285,0.13574499139487872,0.10514162734858536
0.06556234214710494,0.03634006528930339,0.13431302870972406,0.10448986223816134
0.06485052090420651,0.035899375481762696,0.13289811815836283,0.10384506228665998
0.06414738289728444,0.03546445604922682,0.13150003620068662,0.10320713001984154
0.06345281251278884,0.035035225807792725,0.13011856246117826,0.10257596950453407
0.06276669579094887,0.03461160478855496,0.1287534796809473,0.10195148632255374
0.062088920400429154,0.034193514218307075,0.12740457367054714,0.1013335875450973
0.0614193756134066,0.03378087650057182,0.1260716332635592,0.10072218170759589
0.060757952281059235,0.033373615196953144,0.12475445027093035,0.10011717878502363
0.06010454280946048,0.032971655008805056,0.12345281943604935,0.09951849016764897
