jointMR1,jointMR2,jointMR3,force
5.847628908226237,5.867211035379496,7.542798714162924,6.04543834344706
5.5287376694899235,5.544527071955668,7.113684603253514,5.737211886794383
5.226747424543897,5.2392231382831955,6.7079131013392015,5.445474017374716
4.940771004203116,4.950370864719084,6.324233187181703,5.169346769001066
4.669967650931295,4.67709131252731,5.961460527367198,4.907998853690918
4.413540593853857,4.4185523452829125,5.6184739285689,4.660643181141774
4.170734750415923,4.173966139984087,5.294211978397224,4.426534510004022
3.940834548072571,3.9438370070763344,4.987669864816058,4.2049672239487235
3.7231618597438136,3.730123983301939,4.697896364636026,3.9952732258999744
3.517074047093925,3.527854383539024,4.423990992099897,3.7968199441536683
3.3219621060049955,3.3364193011829464,4.1806501869957895,3.609008444438182
3.1372489089084983,3.1552421763305003,3.976419583691753,3.431271642288204
2.9646704251076827,2.983777077884005,3.7815078310435135,3.2630726104020376
2.8232227684741797,2.821507076897097,3.595499054463426,3.103902975935874
2.688186629564885,2.667942706315663,3.4216411480582636,2.953281402956613
2.5592765730126805,2.5226205025248047,3.256122211604621,2.8107521555287325
2.4362197832913757,2.3851016243565035,3.0981551528483884,2.6758837371510387
2.3187555082609586,2.2549705454435,2.953979487468409,2.5482676024867814
2.206634527223654,2.131833816023435,2.8201030531427156,2.427516937546117
2.0996186424115026,2.0153188905043073,2.721119206900098,2.3132655046839954
1.9974801928737325,1.9050730172982218,2.6434958462293157,2.2051665489697494
1.9000015897775981,1.8007621876159612,2.5679738079742505,2.102891762667634
1.8069748721797916,1.7020701400906475,2.494496493574878,2.006130304740835
1.7182012823670467,1.6086974182650564,2.4230088349049677,1.9145878724554493
1.6334908599042532,1.5203604781347295,2.3534572524583357,1.8279858223163092
1.5526620535663134,1.4369108177520205,2.3002675630383997,1.7460603377135748
1.4755413503662609,1.3589176084476073,2.257671494924087,1.668561640798274
1.4217386178535671,1.2858827264735195,2.215911603750695,1.595253246236824
1.3820018209486802,1.2510148763786766,2.1749681964502123,1.5259112546194455
1.3433437636244208,1.2170848165661132,2.134822170881841,1.4603236834155588
1.3057352928951933,1.1840673002358566,2.0954549942177034,1.3982898334812353
1.2691480426161048,1.1519377638644603,2.0568486822107066,1.3396196892297307
1.2335544121934294,1.1206723085005854,2.0189857793068104,1.284133350676508
1.1989275458758057,1.0902476815840683,1.9818493395655923,1.2316604956651898
1.1717594186398326,1.060641259273224,1.9454229083545653,1.182039870670831
1.150482294249721,1.0318310292656128,1.9096905047842208,1.1351188086621462
1.129620992023876,1.003795574097948,1.8746366048521992,1.0907527725849449
1.1091657203751049,0.9765140549112731,1.8444205672455403,1.048804923105471
1.0891069819999941,0.9499661956679607,1.8169328604509336,1.0091457093246219
1.0694355630963954,0.9241322678074996,1.7898893433110712,0.9716524812425339
1.0501425230214871,0.8989930753284373,1.7632822312646184,0.9362091228178676
1.0312191843715528,0.8745299402842296,1.7371038961282657,0.9027057045275148
1.01265712346543,0.850724688681122,1.7113468622022332,0.8710381543905978
0.9944481612143625,0.8275596367665486,1.686003802498857,0.8411079464756815
0.976584354361755,0.8050175776968854,1.6610675350896285,0.8223328992176213
0.9590579870770375,0.783081768573728,1.6365310195662393,0.8077351989275215
0.9418615628885414,0.7617359178381934,1.6123873536113893,0.7934154161518754
0.9249877969409386,0.7409641730130594,1.5886297696752607,0.7793672300765504
0.9084296085634367,0.7207511087828581,1.5652516317537561,0.7655845038975337
0.8921801141355059,0.701081715402344,1.5422464322647382,0.7520612781994971
0.8762326202375068,0.6819413874240298,1.5196077890186763,0.7387917646031122
0.8605806170741235,0.663315912735771,1.497329442280241,0.725770339669621
0.8452177721590406,0.6451914618996425,1.4754052519175351,0.7129915390516789
0.8301379242498,0.6275545777836095,1.4538291946357846,0.7004500518799455
0.8153350775222565,0.6103921654777489,1.4325953612924347,0.6881407153753824
0.8008033959745074,0.593691482487016,1.4116979542907273,0.6760585096776313
0.7865371980506168,0.5774401291927903,1.391131285048949,0.6641985528802868
0.7725309514748662,0.5616260395756612,1.3708897715426573,0.6525560962642567
0.7587792682876722,0.5462374721921304,1.3509679359172933,0.6411265197207989
0.745276900074693,0.5352204861959615,1.3313604021686984,0.6299053273561961
0.7320187333810123,0.5260157506759087,1.3120618938891542,0.6188881432703526
0.7189997853026387,0.5169780604310554,1.293067232076647,0.6080707075019697
0.706215199247901,0.5081039125039599,1.2743713330051711,0.5974488721332395
0.695311054319125,0.4993898964463324,1.2559692061539476,0.5870185975473321
0.6849783896415608,0.4908326912281166,1.2378559521935344,0.5767759488322233
0.6748100251758802,0.48242906226716825,1.2200267610268896,0.5667170923247014
0.6648031862844354,0.4741758585744557,1.2024769098834978,0.5568382922886549
0.6549551500938502,0.466070010009942,1.1852017614647796,0.5471359077219954
0.6452632443420738,0.45810852464450375,1.1681967621390483,0.537606389286826
0.6357248462580409,0.45028848622345324,1.1514574401843514,0.5282462763576807
0.6263373814728079,0.4426070517274127,1.1349794040776089,0.5190521941829039
0.6170983229610589,0.43506144902648464,1.1187583408285096,0.5100208511544384
0.6080051900119369,0.4276489746238233,1.1027900143566924,0.5011490361815001
0.5990555472281851,0.42036699148489504,1.087070263910792,0.49243361616381237
0.5902470035526287,0.41321292694886075,1.0715950025279923,0.4838715335602653
0.5815772113210629,0.40618427071868496,1.0563602155327718,0.47545980404903
0.5730438653406548,0.3992785729267005,1.0413619590735785,0.46719551427534484
0.564644701992993,0.39249344227251853,1.0265963586962257,0.45907581968334316
0.5563774983609632,0.38582654423029966,1.0120596079528394,0.4510979424284539
0.5482400713786499,0.37927559932252136,0.997747967045234,0.4432591693670512
0.540230277003503,0.37283838145751963,0.9836577615016343,0.4355568501201792
0.5323460094100332,0.36651271632817944,0.9697853808857059,0.4279883952083054
0.52458520020433,0.3602964798692761,0.9561272775368914,0.42055127425419586
0.5169458176587243,0.35418759677106576,0.9426799653410868,0.4135135531425631
0.5094258659659414,0.34818403904683765,0.9294400185307322,0.41522991586223756
0.5020233845121153,0.34228382465222423,0.9164040705134169,0.4167928066067914
0.4947364471680625,0.33648501615417664,0.903568812728146,0.4182113371269781
0.48756316159823165,0.3307857194475819,0.8909309935284293,0.4194941186501071
0.4805016685867717,0.32518408251760883,0.8784874170914001,0.4206492887668267
0.47355014138017776,0.3196782942459269,0.8662349423521849,0.42168453688396956
0.46670678504599866,0.3142665832590415,0.8541704819627922,0.42260712831975755
0.4599698358471067,0.30894721681704734,0.8422910012747927,0.423423927113589
0.4533375606310493,0.3037938830630019,0.8305935173451068,0.42414141761881075
0.44680825623402,0.2992986945532289,0.8190750979642325,0.4247657249432292
0.4403802488990042,0.29487349515196826,0.8077328607062666,0.425302634298674
0.4340518937076699,0.29051714688567065,0.7965639720001088,0.4257576093176757
0.42782157402559073,0.2862285315447709,0.7855656462212396,0.4261358093922205
0.42168770096040287,0.28200655029472554,0.774735144803502,0.42644210608663524
0.4156487128325125,0.2778501232964634,0.76406977537033,0.4266810986738785
0.409703074657983,0.2737581893359521,0.7535668908848789,0.42685712884189975
0.4038492776432475,0.26972970546261,0.7432238888185447,0.42697429461424685
0.39808583869129993,0.2657636466362875,0.7330382103373743,0.4270364635267503
0.3924112999190362,0.26185900538256734,0.7230073395058674,0.42704728509989387
0.3868242281854239,0.2580147914561247,0.7131288025077218,0.42701020264436673
0.3813232146301924,0.25423003151191814,0.7034001668830467,0.4269284644353112
0.37590687422274643,0.25050376878396974,0.6938190407816338,0.42680513428887734
0.3705738453210155,0.24683506277151876,0.6843830722318376,0.42664310157291996
0.36532278923996175,0.24322298893232866,0.6750899484246717,0.42644509068197634
0.36015238982947934,0.23966663838294386,0.6659373950127221,0.4262136700050557
0.3550613530614266,0.2361651176056946,0.6569231754234963,0.4259512604132646
0.35004840662554154,0.23271754816225523,0.6480450901868322,0.42566014329284596
0.34511229953399936,0.22932306641357394,0.63930097627602,0.4253424681478507
0.3402518017343804,0.2259808232459891,0.6306887064622766,0.42500025979538114
0.33546570373082174,0.22268998380336494,0.6222061886822547,0.42463542517511066
0.3307528162131368,0.21944972722507314,0.6138513654182423,0.424249759793644
0.3261119696936914,0.21625924638966218,0.6056222130907543,0.4238449538231802
0.3215420141518341,0.21311774766405936,0.5975167414632045,0.4234225978729059
0.317041818685684,0.21002445065815098,0.5895329930583608,0.4229841884505715
0.3126102711710853,0.20697858798459903,0.5816690425863063,0.4225311331307652
0.3082462779275463,0.20397940502375142,0.5739229963836168,0.4220647554455331
0.30394876339098303,0.20102615969351054,0.5662929918634994,0.42158629951215076
0.2997166697930974,0.19811812222402883,0.5587771969766198,0.4210969344120643
0.29554895684722116,0.19525457493710505,0.5513738096823784,0.4205977583342869
0.29144460144046647,0.19243481203015603,0.5440810574303729,0.4200898024958084
0.28740259733202456,0.18965813936464873,0.5368971966518292,0.41957403485092604
0.2834219548574634,0.18692387425887483,0.5298205122607524,0.41905136360075923
0.2795017006388761,0.1842313452849574,0.5228493171645927,0.4185226405136149
0.27564087730073894,0.18157989206998357,0.5159819517841855,0.41798866406631163
0.2718385431913407,0.17896886510115748,0.5092167835827761,0.4174501824160085
0.2680937721096508,0.17639762553487168,0.5025522066039141,0.41690789621160973
0.2644056530374955,0.17386554500960436,0.4959866410180165,0.4163624612533008
0.2607732898769182,0.17137200546254136,0.4895185326774105,0.41581449100834267
0.2571958011926013,0.16891639894983587,0.4831463526796709,0.41526455899079917
0.2536723199592307,0.16649812747041612,0.4768685969390549,0.4147132010124742
0.25020199331369086,0.1641166027932542,0.47068378576588077,0.4141609173119465
0.2467839823119768,0.161771246288014,0.46459046345365285,0.41360817456821797
0.24341746169071615,0.15946148875899588,0.45858719787377944,0.41305540780515126
0.24010161963319626,0.1571867702823028,0.4526725800777194,0.4125030221925411
0.23683565753979519,0.15494654004614725,0.44684522390639114,0.41195139474934594
0.23361878980271655,0.1527402561942308,0.44110376560669695,0.41140087595432606
0.2304502435849332,0.15056738567212,0.43544686345500994,0.41085179126904015
0.22732925860324593,0.1484274040765521,0.4298731973874719,0.41030444257789656
0.22425508691536677,0.14631979550760268,0.42438146863697135,0.4097591095497072
0.22122699271093826,0.14424405242365015,0.41897039937664404,0.40921605092494695
0.21824425210640386,0.14219967549907195,0.41363873236978344,0.4086755057327026
0.21530615294364464,0.1401861734846119,0.4083852306260114,0.40813769444108583
0.21241199459230276,0.13820306307036181,0.403208677063585,0.40760282004467485
0.20956108775571183,0.13624986875129233,0.398107874177722,0.4070710690923699
0.20675275428035791,0.13432612269528424,0.3930816437148108,0.4065426126588564
0.20398632696879587,0.13243136461359936,0.3881288263523959,0.4060176072627095
0.20126114939594883,0.13056514163373997,0.38324828138482125,0.4054961957340042
0.1985765757287199,0.1287270081746462,0.3784388864144046,0.4049785080341445
0.1959319705488466,0.1269165258241772,0.3736995370480638,0.4044646620304866
0.19332670867893229,0.1251332632188316,0.3690291465992448,0.403954764228181
0.19076017501158676,0.12337679592565601,0.3644266457950871,0.4034489104615405
0.1882317643416154,0.12164670632629396,0.35989098248869644,0.4029471865471146
0.18574088120119095,0.11994258350313605,0.355421121376438,0.4024496689005306
0.18328693969795107,0.11826402312751985,0.3510160437201457,0.40195642511905494
0.18086936335596082,0.1166106273499424,0.3466747470741596,0.40146751453172713
0.17848758495948167,0.11498200469223921,0.3423962450170903,0.4009829887188129
0.17614104639949268,0.11337776994169271,0.3381795668882217,0.4005028920022309
0.1738291985229084,0.11179754404702766,0.3340237575284719,0.40002726190852944
0.17155150098443966,0.11024095401625675,0.3299278770258087,0.39955612960588893
0.16930742210104546,0.10870763281633725,0.32589100046504726,0.3990895203165594
0.1670964387089253,0.10719721927460321,0.32191221768195133,0.3986274537060608
0.16491803602300162,0.10570935798193773,0.3179906330215334,0.3981699442504073
0.1627717074988454,0.10424369919764717,0.31412536510050937,0.3977170015825443
0.1606569546969953,0.10279989875600834,0.3103155465737979,0.3972686308191281
0.15857328714962626,0.10137761797445224,0.3065603239050101,0.39682483286871306
0.15652022222952106,0.09997652356335088,0.30285885714083993,0.3963856047223585
0.15449728502130178,0.09859628753737956,0.29921031968930234,0.3959509397276111
0.15250400819487703,0.0972365871284199,0.29561389810172756,0.3955208278467659
0.1505399318810636,0.09589710469997612,0.2920687918584508,0.3950952559002635
0.14860460354934144,0.09457752766307284,0.2885742131581406,0.394674207796036
0.14669757788770116,0.0932775483936086,0.2851293867106768,0.3942576647455647
0.14481841668454598,0.09199686415113453,0.28173354953353047,0.3938456054673781
0.14296668871260665,0.09073517699903175,0.27838595075157957,0.3934380063786763
0.14114196961483738,0.08949219372606096,0.2750858514002916,0.39303484177573256
0.13934384179224996,0.08826762576925848,0.27183252423221926,0.39263608400368544
0.13757189429365344,0.08706118913815167,0.2686252535267404,0.3922417036163073
0.1358257227072644,0.08587260434026958,0.26546333490300156,0.391851669526295
0.13410492905415217,0.08470159630792726,0.26234607513598274,0.3914659491466098
0.13240912168348523,0.08354789432625312,0.259272791975653,0.39108450852335297
0.13073791516954755,0.0824112319624439,0.2562428139691395,0.3907073124606505
0.1290909302104907,0.08129134699621796,0.25325548028587397,0.39033432463798534
0.12746779352879162,0.08018798135145025,0.2503101405456485,0.3899655077203932
0.12586813777338354,0.07910088102896126,0.24740615464955162,0.3896008234619208
0.12429160142343293,0.07802979604044516,0.24454289261369944,0.38924023280271947
0.12273782869372801,0.07697448034350793,0.24171973440574446,0.3888836959601255
0.12120646944165547,0.07593469177780635,0.23893606978410675,0.38853117251406555
0.11969717907573171,0.0749101920022551,0.23619129813985595,0.3881826214871027
0.11820961846566502,0.0739007464332935,0.2334848283412303,0.3878380014194196
0.11674345385391904,0.07290612418418532,0.23081607858072895,0.3874972704390278
0.11529835676875103,0.07192609800533753,0.22818447622473248,0.3871603863274662
0.11387400393869995,0.07096044422561612,0.22558945766561678,0.3868273065812454
0.11247007720849764,0.07000894269464311,0.22303046817630046,0.38649798846927563
0.11108626345637845,0.0690713767260587,0.2205069617672104,0.3861723890865074
0.10972225451276249,0.06814753304172591,0.21801840104559256,0.38585046540399615
0.10837774708028866,0.06723720171686762,0.21556425707715032,0.3855321743155977
0.10705244265517339,0.06634017612611334,0.21314400924996102,0.3852174726814833
0.10574604744987282,0.06545625289044563,0.21075714514063293,0.38490631736865666
0.10445827231702409,0.06458523182502338,0.20840316038266438,0.3845986652886454
0.10318883267464507,0.06372691588787324,0.20608155853696575,0.38429447343252776
0.10193744843256974,0.06288111112942843,0.20379185096451047,0.3839936989034487
0.10070384392009868,0.06204762664290389,0.20153355670107365,0.3836962989467707
0.09948774781484132,0.061226274515490925,0.1993062023340324,0.38340223097799664
0.0982888930727337,0.060416869780358234,0.19710932188117591,0.38311145260859036
0.09710701685920586,0.05961923036944347,0.19494245667151544,0.38282392166982593
0.0959418604814849,0.05883317706702443,0.192805155228029,0.38253959623477196
0.09479316932200876,0.058058533464053735,0.19069697315233847,0.38225843463852616
0.09366069277293632,0.0572951259132444,0.18861747301127174,0.3819803954968045
0.09254418417173116,0.05654278348489436,0.1865662242252677,0.3817054377229757
0.09144340073780499,0.05580133792343647,0.1845428029586209,0.3814335205436403
0.0903581035101963,0.0550706236047008,0.1825467920115038,0.38116460351284265
0.08928805728627426,0.05435047749387792,0.18057778071376096,0.3808986465249893
0.08823303056144421,0.05364073910417136,0.17863536482043263,0.38063560982656064
0.0871927954698401,0.052941250456125105,0.1767191464089788,0.3803754540266875
0.08616712772598911,0.0522518560376197,0.1748287337781811,0.380118140106656
0.08515580656742738,0.05157240276451755,0.17296374134868975,0.37986362942841845
0.08415861469825453,0.05090273994195563,0.17112378956519225,0.37961188374215704
0.08317533823361062,0.05024271922626686,0.169308504800171,0.37936286519297313
0.08220576664505769,0.04959219458752398,0.1675175192592242,0.37911653632674847
0.0812496927068535,0.04895102227269263,0.1657504708879325,0.3788728600952338
0.08030691244310117,0.04831906076938644,0.16400700328023143,0.3786317998604136
0.07937722507575823,0.04769617077021013,0.16228676558827915,0.378393319398192
0.07846043297349514,0.04708221513768432,0.16058941243378277,0.3781573829014486
0.07755634160138397,0.04647705886973855,0.15891460382076272,0.3779239549824992
0.07666475947140683,0.04588056906576718,0.1572620050497362,0.37769300067500367
0.0757854980937695,0.0452926148932348,0.1556312866332925,0.3774644854353594
0.07491837192900469,0.04471306755482482,0.1540221242130324,0.3772383751436119
0.0740631983408554,0.04414180025611866,0.15243419847785455,0.37701463610391817
0.0732197975499233,0.043578688173801644,0.15086719508356872,0.3767932350445893
0.07238799258806772,0.043023608424382215,0.14932080457380792,0.3765741391177482
0.07156760925354688,0.04247644003341741,0.14779472230221868,0.37635731589862387
0.07075847606688512,0.04193706390523813,0.14628864835591715,0.37614273338451154
0.06996042422745696,0.04140536279316162,0.14480228748017288,0.37593035999342117
0.0691732875707734,0.04088122127018748,0.14333534900431788,0.3757201645624386
0.06839690252646086,0.04036452570016666,0.14188754676885407,0.37551211634581894
0.06763110807692158,0.03985516420943583,0.1404585990537326,0.37530618501283786
0.06687574571666077,0.039417092660281816,0.1390482285077932,0.37510234064541137
0.06613065941227458,0.039429472941882926,0.13765616207934905,0.37490055373551034
0.06539569556308433,0.03944102655269238,0.13628213094788189,0.3747007951823814
0.06488656207780519,0.0394517698943298,0.134925870456849,0.374503036289594
0.06467608274300896,0.039461719121481,0.13358712004756645,0.3743072487619251
0.06446828493487233,0.03947089014273564,0.13226562319416457,0.3741134047020972
0.06426310152600934,0.039479298621612424,0.13096112733958787,0.37392147660738473
0.06406046726106537,0.039486959977758807,0.1296733838326296,0.3737314373660985
0.06386031870468939,0.03949388938831172,0.1284021478659787,0.37354326025396023
0.06366259419093279,0.03950010178940683,0.12714717841526513,0.3733569189303805
0.06346723377403762,0.0395056118778232,0.12590823817908636,0.3731723874346472
0.06327417918057554,0.039510434112753845,0.12468509352000323,0.37298964018203895
0.06308337376290074,0.03951458271768932,0.12347751440648014,0.37280865195986346
0.06289476245388192,0.03951807168240762,0.12228527435576142,0.3726293979234423
0.06270829172287765,0.039520914765056536,0.12110815037767009,0.37245185359203736
0.0625239095329218,0.03952312549432513,0.11994592291930206,0.37227599484473717
0.062341565299085994,0.039524717171690316,0.11879837581062258,0.3721017979162988
0.06216120984798701,0.03952570287373686,0.11766529621092214,0.3719292393929634
0.06198279537840834,0.03952609545453695,0.1165464745561473,0.3717582962082445
