jointMR1,jointMR2,jointMR3,force
5.991767045950408,5.797056547701673,6.675054576137093,6.143147289097219
5.659325835818702,5.480810415204776,6.29075723096664,5.801177482593707
5.344822222448434,5.181572313489671,5.961360338284754,5.477692819704217
5.047297643189619,4.898434086253977,5.675869178178733,5.17170457621947
4.765844578346237,4.630535927029645,5.40347969002508,4.882276700500419
4.499603836900069,4.3770638081957705,5.143600278140022,4.6085230119401
4.2477619864875775,4.1372470466295965,4.895665896566259,4.349604548331548
4.009548919965399,3.9103559987357754,4.67301735713562,4.104727054229597
3.784235551307004,3.6956998779796106,4.4616247143852075,3.873138602814863
3.571131633958861,3.492624688415201,4.259318756538287,3.6541273441660964
3.3695836951493163,3.3005112680452346,4.0657170465778805,3.447019373224086
3.178973079989199,3.1207639384857075,3.880453091930593,3.2511767110870093
2.99871409953042,2.9509548343787753,3.7031756825820734,3.065995393615157
2.8282522772587853,2.7902776535738427,3.5436640275633273,2.919025322324875
2.6670626887906574,2.638245361667052,3.3937084738733825,2.797082776281188
2.5146483898210663,2.4943968278253386,3.2500533769644893,2.6807072859310126
2.3705389276338615,2.358295448244807,3.1124361840208903,2.56964778802432
2.2539532430414564,2.229527842741165,2.980605228612786,2.463664483758128
2.153482301602597,2.107702620587277,2.8543192803244444,2.3625283344039083
2.057292435013929,1.992449211919176,2.7333471130003573,2.266020579500775
1.965204134575843,1.8834167612273365,2.639330652620112,2.1739322766051496
1.877045366360357,1.7802730796350412,2.566638936266426,2.086063861632733
1.7926512609533665,1.6887733042269366,2.4961074463345385,2.00222472887169
1.7118638160569208,1.62136337519941,2.431665627428595,1.9222328297872255
1.6408460092073294,1.5565951041869852,2.3698268466395667,1.8459142897770011
1.577906247920464,1.4943657424332535,2.3095618652734475,1.7731030420745082
1.5200116409374933,1.4345765251504188,2.25082752493543,1.7036404780333658
1.482468745550226,1.377132517252225,2.193581967227371,1.6373751130598486
1.4458872724691847,1.3219424650571399,2.137784590716704,1.5741622674937175
1.4102405446073267,1.268918653730794,2.0833960094466377,1.5138637617687103
1.3755026993544652,1.2179767702455864,2.0303780129292415,1.4563476252139818
1.3416486612829508,1.1690357716439865,1.9786935275652586,1.4014878178863315
1.3086541158402414,1.1220177584003044,1.9283065794367429,1.3491639648503426
1.2764954839906841,1.076847852683652,1.8791822584206999,1.299261102349651
1.2451498977703779,1.033454081332451,1.8312866835739572,1.251669435337426
1.2145951767203662,0.9917672633581712,1.7848517267013102,1.206284105857974
1.1848098051647935,0.9517209018030536,1.747956781966436,1.1630049717940714
1.155772910301982,0.9254519018552516,1.711926689251113,1.121736395516351
1.1274642410776226,0.9038170379727457,1.6767397850683583,1.0823870419918151
1.0998641478105118,0.8827237920267137,1.6423749927994593,1.0448696859283408
1.0729535625424085,0.8621574618996053,1.6088118052368767,1.0091010275509764
1.046713980084702,0.8421037844923192,1.5760302676984026,0.9750015166239089
1.0211274397356618,0.8225489213001524,1.5440109616923003,0.9424951843492383
0.9961765076430584,0.8034794445024138,1.5127349891139024,0.9115094827902134
0.9718442597879309,0.7848823235462887,1.4821839569548942,0.8819751314823157
0.9481142655662305,0.7667449122063543,1.4523399625071987,0.8538259709106607
0.92497057194597,0.7490549361018164,1.4231855790440704,0.8269988225465398
0.9023976881783775,0.7318004806542684,1.3947038419616473,0.8036547185262728
0.8803805710424166,0.7149699794694662,1.366878235364845,0.7844988623685301
0.8589046106027933,0.6985522031272002,1.3412349729393152,0.7658162931945326
0.837955616462388,0.6825362483640307,1.316729812070351,0.74759445714675
0.8175198044907632,0.6669115276341993,1.2927326936505372,0.7298211653992265
0.7975837840111164,0.6516677590346294,1.269231038276888,0.7124845824527133
0.778134545428735,0.6367949565804623,1.246212641790998,0.6955732148389818
0.7591594482846611,0.6222834208181052,1.223665662302045,0.679075900219061
0.7406462097189042,0.6081237297632749,1.2015786077027142,0.6629817968607239
0.7225828933281444,0.5943067301520131,1.1799403236583035,0.6472803734811386
0.7049578984034557,0.5808235289930967,1.158739982050101,0.6319613994411263
0.6877599495341226,0.567665485410725,1.137967069854891,0.6170149352780052
0.6709780865641757,0.554824202766812,1.1176113784431974,0.6024313235645016
0.6546016548887699,0.5422915210525863,1.097662993279587,0.5882011800816983
0.6386202960780365,0.530059509539629,1.078112284009037,0.5743153852944469
0.6230239388165044,0.5181204596808553,1.0589498949140315,0.5607650761181209
0.607802790146647,0.5064668782522956,1.0401667357276796,0.5475416379660266
0.5929473270055454,0.4950914807268976,1.0217539727887446,0.5346366970671789
0.5790764258963781,0.48398718487190434,1.0037030205250619,0.5220421130445686
0.5673125227652994,0.4731471045616837,0.9860055332523672,0.5097499717444047
0.5558156820884927,0.4625645437981975,0.9686533972760899,0.49775257830719927
0.5445795000523079,0.4522329909315956,0.9516387232841782,0.4860424504719078
0.5335977365442007,0.44214611307371493,0.9349538390195034,0.4746123121046598
0.5228643106041909,0.43229775069751747,0.9185912822208617,0.4634550869439614
0.5123732960154403,0.4226819124157984,0.9025437938220405,0.452563892554545
0.5021189170292834,0.4132927699327191,0.8868043113988386,0.4419320344823447
0.4920955442202069,0.4041246531619816,0.8713659628543488,0.4342967913556154
0.4822976904664463,0.3951720455056846,0.856222060333199,0.42757904965263227
0.4727200070520129,0.3864295792881443,0.8413660943558285,0.42119731383668524
0.4633572798861243,0.3778920313391529,0.8267917281642374,0.41513584061569
0.4542044258361495,0.36955431872137773,0.8124927922709931,0.40937960364104564
0.4452564891703239,0.3614114945968007,0.7984632792036142,0.4039142612178108
0.4365086381066201,0.35345874422727525,0.7846973384367619,0.3987261254628334
0.42795616146428983,0.3456913811044772,0.7711892715049886,0.393802132846017
0.4195944654147186,0.3381048432047052,0.7579335272890698,0.3891298160528063
0.41141907032834957,0.330694689364134,0.7449246974692418,0.38469727710874263
0.40342560771455255,0.32477740388481036,0.7321575121389257,0.38049316170959246
0.3956098172514219,0.3190362629584135,0.7196268355727813,0.37650663470306595
0.38796754390259336,0.313409018840465,0.7073276621431819,0.3727273566705758
0.3804947351182734,0.30789304692828,0.6952551123794363,0.36914546155977634
0.37318743811777283,0.30248579442634904,0.6834044291643147,0.36575153532083754
0.3660417972509298,0.2971847780444119,0.6717709740626495,0.36253659550150624
0.35905405143590147,0.29198758177842155,0.660350223776993,0.35949207175802333
0.3522205316708887,0.28689185477119267,0.6491377667255184,0.35660978724088244
0.3455376586174437,0.2818953092496506,0.6381292997375353,0.35443389671497083
0.3390019402530936,0.27699571853573257,0.6273206248621784,0.3561832498167783
0.3326099695910885,0.27219091512810145,0.6167076462860115,0.3578128339710045
0.32635842246516045,0.267478788851952,0.6062863673554454,0.35932865100537736
0.3202440553772514,0.2628572850742977,0.5960528877000446,0.3607364227106694
0.314263703406239,0.2583244029822302,0.58600340045294,0.3620416035845524
0.3084142781757557,0.2538781939217443,0.5761341895647327,0.3632493930012569
0.3026927658792626,0.24951675979481897,0.5664416272073909,0.36436474683279785
0.2970962253606012,0.2452382515125338,0.5569221712648131,0.3653923885463731
0.2916217862483078,0.24104086750209508,0.5475723629068281,0.36633681980144317
0.2862666471420318,0.23692285226572318,0.538388824243557,0.3672023305689439
0.2810280738494565,0.2328824949894398,0.5293682560571682,0.3679930087940796
0.2759033976721752,0.22891812819987023,0.5205074356081762,0.36871274962318623
0.2708900137390253,0.22502812646725073,0.51180321451355,0.3693652642142301
0.2659853793854364,0.22121090515290076,0.5032525166939996,0.36995408814963804
0.2611870125773934,0.2174649191994943,0.49485233638791715,0.37048258946931223
0.2564924903786653,0.21378866196252344,0.48659973622954045,0.3709539763408911
0.25189944745999365,0.21018066408141756,0.47849184538901546,0.3713713043835358
0.2474055746489769,0.20663949238883678,0.47052585777209854,0.3717374836608206
0.24300861751943104,0.20316374885672106,0.4626990302773615,0.37205528535757415
0.23870637501904612,0.19975206957772895,0.45500868110882076,0.372327348154886
0.23449669813419566,0.1964031237807557,0.4474521881419935,0.37255618431682824
0.23037748859079632,0.19311561287927176,0.44002698734147927,0.37274418550185506
0.2263466975901485,0.18988826955127025,0.4327305712282139,0.37289362831124906
0.2224023245787244,0.18671985684966252,0.42556048739464014,0.37300667958643585
0.2185424160509046,0.18360916734200416,0.41851433706608065,0.37308540146645897
0.21476506438369508,0.18055502227847697,0.41158977370668626,0.3731317562163926
0.21106840670248977,0.17755627078709663,0.40478450166838664,0.373147610836999
0.2074506237769704,0.17461178909515485,0.39809627488132415,0.3731347414654653
0.20390993894626824,0.17172047977594113,0.39152289558432196,0.373094837576619
0.20044461707254058,0.16888127101983164,0.38506221309398536,0.3730295059935955
0.19705296352213675,0.1660931159288606,0.37871212261109166,0.372940274716537
0.1937333231735609,0.16335499183393237,0.37314235936065554,0.372828596577505
0.19048407945145987,0.16066589963385797,0.36795126778268994,0.3726958527294355
0.18730365338589253,0.15802486315543351,0.36286744402711046,0.3725433559766008
0.18419050269615428,0.15543092853381069,0.3578884947312839,0.3723723539537216
0.18114312089846168,0.15288316361243454,0.35301208178730725,0.3721840321605405
0.17816003643681594,0.15038065736185335,0.3482359210143897,0.37197951685836717
0.17523981183639117,0.14792251931673267,0.34355778086508604,0.37175987783481734
0.1723810428788102,0.1455078790304289,0.3389754811644252,0.37152613104268195
0.16958235779869238,0.14313588554650541,0.3344868918810435,0.37127924111859845
0.16684241650087556,0.1408057068865956,0.33008993192943925,0.37102012378694493
0.1641599097977346,0.13851652955403965,0.3257825680024853,0.37074964815413136
0.16153355866603508,0.13626755805274549,0.3215628134333892,0.37046863889823156
0.15896211352277761,0.13405801442074355,0.31742872708628966,0.3701778783586729
0.156444353519508,0.13188713777792577,0.3133784122747081,0.3698781085304996
0.15397908585458112,0.12975418388747811,0.30941001570710225,0.3695700329675088
0.15156514510288113,0.12765842473053457,0.30552172645880127,0.36925431859837987
0.14920139256252338,0.12559914809359868,0.3017117749695917,0.3689315974597198
0.14688671561806518,0.12357565716829472,0.29797843206627395,0.36860246834977994
0.14462002711977925,0.12158727016302823,0.2943200080095263,0.36826749840642614
0.14240026477854922,0.11963331992615017,0.29073485156441503,0.36792722461278593
0.14022639057596237,0.11771315358023521,0.2872213490939246,0.3675821552338421
0.13809739018918726,0.11582613216709814,0.28377792367489496,0.3672327711870922
0.13601227243023728,0.11397163030318669,0.28040303423577817,0.3668795273502602
0.13397006869923034,0.11214903584500291,0.27709517471562295,0.36652285380890026
0.13196983245126928,0.11035774956421779,0.2738528732437424,0.36616315704662283
0.13001063867657672,0.10859718483215536,0.27067469133949995,0.36580082108053213
0.1280915833935299,0.106866767313336,0.2675592231317161,0.36543620854435743
0.12621178315425177,0.10516593466777868,0.26450509459714544,0.36506966172165156
0.12437037456242159,0.10349413626177362,0.26151096281755515,0.36470150353131403
0.12256651380298414,0.1018508328868471,0.25857551525490075,0.36433203846760065
0.120799376183439,0.10023549648665031,0.25569746904414226,0.363961553496686
0.11906815568640625,0.09864760989151361,0.2528755703032337,0.36359031891174964
0.11737206453316953,0.09708666656041859,0.2501085934598426,0.3632185891484585
0.11571033275791057,0.0955521703301449,0.24739534059437118,0.3628466035626622
0.11408220779235095,0.09404363517136455,0.24473464079885843,0.36247458717199466
0.11248695406053263,0.09256058495145736,0.24212534955134846,0.3621027513630405
0.11092385258347057,0.09110255320383381,0.23956634810534694,0.3617312945656196
0.10939220059342072,0.08966908290355863,0.2370565428939404,0.36136040289569094
0.10789131115751507,0.08825972624907352,0.23459486494825987,0.36099025076829994
0.10642051281051845,0.0868740444498281,0.2321802693298758,0.3606210014819353
0.104979149196474,0.085511607519631,0.22981173457678672,0.3602528077755923
0.10356657871900737,0.08417199407554377,0.22748826216266793,0.3598858123597922
0.1021821742000647,0.082854791142143,0.22520887596902694,0.35952014842274005
0.10082532254687249,0.08155959396098472,0.22297262176994725,0.35915594011275553
0.0994954244269039,0.08028600580510836,0.22077856672911,0.3587933029980598
0.09819189395065114,0.07903363779842704,0.218625798908769,0.35843234450495165
0.09691415836200123,0.077802108739852,0.21651342679039431,0.3580731643353612
0.09566165773602442,0.07659104493200752,0.214440578806685,0.3577158548647186
0.09443384468398802,0.07540008001439613,0.21240640288466195,0.3573605015210448
0.09369006716672024,0.07422885480087865,0.210410065999578,0.3570071831461197
0.09314036263499423,0.07307701712133974,0.2084507537393676,0.3566559723395444
0.0925982105131658,0.0719442216674116,0.20652766987936633,0.35630693578649086
0.09206338928383787,0.07083012984213549,0.20464003596706082,0.35596013456987563
0.0915356858823313,0.0697344096134433,0.20295107517039912,0.35561562446767936
0.0910148953629446,0.06865673537134481,0.20221463988161603,0.3552734562360925
0.09050082057831715,0.06759678778871259,0.20148488031780776,0.35493367587913427
0.08999327187138506,0.06655425368555717,0.20076158777166575,0.35459632490537274
0.089492066779439,0.06552882589669057,0.20004456273921734,0.354261440572333
0.08899702974981158,0.06452020314268025,0.19933361452986653,0.3539290561191666
0.08850799186674063,0.06352808990399622,0.19862856089221315,0.3535992009881158
0.08802479058897267,0.06255219629825987,0.1979292276550384,0.3532719010352955
0.08754726949768707,0.061592237960505336,0.19723544838284934,0.35294717873128234
0.08707527805433835,0.060647935926365804,0.19654706404541122,0.35262505335198246
0.08660867136802927,0.05971901651810302,0.1958639227007135,0.3523055411602265
0.08614730997204278,0.058805211233397214,0.19518587919083408,0.35198865557852343
0.08569105960917467,0.05790625663682053,0.194512794850197,0.3516744073533775
0.08523979102552381,0.05702189425391874,0.19384453722572803,0.35136280471156744
0.08479337977240897,0.056151870467825604,0.19318097980843807,0.3510538535087476
0.08435170601609504,0.05529593641834274,0.19252200177598078,0.3507475573707458
0.08391465435502304,0.05445384790341323,0.1918674877457487,0.35044391782787887
0.08348211364425118,0.05362536528292433,0.19121732753809106,0.3501429344426237
0.08305397682682397,0.052810253384774575,0.19057141594924554,0.34984460493094816
0.08263014077179962,0.05200828141314395,0.18992965253360805,0.3495489252775974
0.08221050611867431,0.05121922285890507,0.18929194139495698,0.3492558898456186
0.08179497712795339,0.05044285541211918,0.1886581909862839,0.34896549148039524
0.0813834615376289,0.0496789608765591,0.18802831391788488,0.34867772160844324
0.08097587042533216,0.0489273250862054,0.18740222677338347,0.3483925703312204
0.08057211807593923,0.04818773782366187,0.18677984993336794,0.34811002651417866
0.08017212185441541,0.04745999274044027,0.18616110740634162,0.3478300778712825
0.079775802083694,0.04674388727906287,0.18554592666668945,0.34755271104521246
0.0793830819273916,0.04603922259693627,0.18493423849938684,0.34727791168344835
0.07899388727717016,0.04534580349194933,0.1843259768511738,0.3470056645104346
0.07860814664456464,0.04466343832974923,0.1837210786879424,0.34673595339600816
0.07822579105709948,0.043991938972652134,0.1831194838580823,0.3464687614202683
0.07784675395852736,0.043331120710147,0.18252113496155054,0.3462040709350529
0.07747097111302687,0.04268080219094866,0.18192597722443393,0.34594186362219026
0.07709838051320503,0.042040805356564015,0.18133395837878186,0.34568212054866954
0.07672892229175415,0.04141095537632816,0.18074502854749963,0.3454248222188865
0.07636253863662038,0.040791080583876316,0.18015914013409962,0.3451699486240969
0.07599917370954504,0.040181012415012984,0.17957624771711034,0.3449174792892149
0.0756387735678472,0.03958058534694375,0.17899630794896182,0.34466739331708185
0.07528128608931922,0.0389896368388348,0.17841927945916036,0.3444196694303293
0.07492666090011296,0.038408007273667666,0.17784512276158515,0.3441742860109477
0.07457484930549974,0.03783553990135538,0.17727380016573568,0.34393122113767693
0.07422580422338937,0.037272080783089856,0.17670527569177197,0.3436904526213177
0.07387948012050166,0.036717478736889075,0.1761395149891951,0.3434519580380715
0.07353583295108407,0.03617158528431519,0.17557648525901826,0.3432157147609981
0.07319482009807604,0.03563425459833347,0.17501615517928726,0.342981699989685
0.0728564003166241,0.03510534345228594,0.1744584948338157,0.3427498907782195
0.07252053367985356,0.03458471116995021,0.1739034756440032,0.34252026406153846
0.0721871815268092,0.03407221957665954,0.17335107030360875,0.34229279668024337
0.07185630641247875,0.03359756646458384,0.1728012527163647,0.3420674654039497
0.07152787205981664,0.03362227583364552,0.17225399793630647,0.3418442469532491
0.07120184331368984,0.03364590106637394,0.1717092821107178,0.3416231180203455
0.07087818609666896,0.033668461736258315,0.1711670824255751,0.341404055288438
0.07055686736659231,0.033689977212057354,0.17062737705339148,0.34118703544990936
0.07023785507583238,0.03371046665297328,0.17009014510336762,0.3409720352233784
0.0699211181321977,0.03372994900435872,0.1695553665737426,0.34075903136967756
0.0696066263614053,0.03374844299392482,0.16902302230626698,0.3405480007068028
0.06929435047106108,0.033765967128415175,0.1684930939427043,0.34033892012389777
0.06898426201608926,0.03378253969072087,0.1679655638832731,0.34013176659430955
0.06867633336555279,0.033798178737406315,0.16744041524696152,0.33992651718777145
0.06837053767080936,0.03381290209662102,0.16691763183362363,0.3397231490817537
0.06806684883495101,0.03382672736636949,0.16639719808779163,0.33952163957202774
0.06776524148347529,0.03383967191312259,0.16587909906413123,0.3393219660824771
0.06746569093613991,0.033851752870740104,0.16536332039447066,0.3391241061742054
0.06716817317995288,0.03386298713968933,0.16484984825633764,0.33892803755396717
0.06687266484325438,0.03387339138653894,0.16433866934294294,0.33873373808196294
0.06657914317084535,0.033882982043708765,0.1638297708345482,0.3385411857790287
0.06628758600012247,0.03389177530945714,0.16332314037116213,0.3383503588332549
0.06599797173817862,0.03389978714809272,0.16281876602650613,0.33816123560606115
0.06571027933983073,0.0339070332903908,0.16231663628320114,0.33797379463776034
0.0654244882865378,0.03391352923420393,0.16181674000911617,0.3377880146526331
0.06514057856617389,0.03391929024524892,0.16131906643484117,0.33760387456354757
0.06485853065362168,0.03392433135806017,0.1608236051322216,0.3374213534761379
0.06457832549215375,0.033928667377095156,0.16033034599392604,0.33724043069258003
0.06429994447557064,0.03393231287798243,0.15983927921398844,0.3370610857149694
0.06402336943106446,0.03393528220889863,0.15935039526929384,0.33688329824834007
0.06374858260278035,0.03393758949206699,0.1588636849019618,0.3367070482033314
0.0634755666360462,0.03393924862536574,0.15837913910259016,0.3365323156985309
0.06320430456224546,0.03394027328403748,0.15789674909432394,0.33635908106250656
0.06293477978430606,0.033940676922491975,0.15741650631771242,0.33618732483554836
0.06266697606278138,0.033940472776194164,0.15693840241631984,0.3360170277711356
0.06240087750249915,0.03393967386362817,0.15646242922305853,0.33584817083714735
0.062136468539755796,0.0339382929883324,0.15598857874721328,0.3356807352168242
