jointHR1,jointHR2,jointHR3,force
6.37637586073679,5.62630131369458,7.716011410655574,6.150612083702549
6.025664620035503,5.318122942100095,7.284799736839524,5.808374831838059
5.69359667844347,5.026519337098406,6.876619455399321,5.484624142558659
5.379192315267736,4.750605601288502,6.490258262831122,5.178371720419285
5.081523082569238,4.489543946370338,6.124567337156497,4.888681905823892
4.799709125936284,4.242541188021528,5.77845802005508,4.6146688756514225
4.532916645179198,4.0088463739273195,5.450898672283206,4.355493992680189
4.2803554876405405,3.787748537887906,5.14091169333055,4.110363295903245
4.041276867196527,3.578574573303088,4.847570696739203,3.8785251242474694
3.8149712023868725,3.3806872196903184,4.569997832957277,3.6592678666070424
3.600766067452952,3.193483156229249,4.307361252023563,3.4519178314785224
3.3980242503888203,3.016391196645141,4.058872698781889,3.2558372298415987
3.2061419124175274,2.8488705800456335,3.823785233705049,3.0704222652672173
3.0245468435968164,2.690409352611603,3.6022200053148294,2.895101325554601
2.852696809534824,2.5405228353137903,3.426418661949099,2.7558566069089427
2.6900779844584575,2.398752173083426,3.258725188343346,2.6466062377552344
2.5362034661254866,2.264662961108028,3.098773126611312,2.5422621502592553
2.3906118683067996,2.1378439441535675,2.9462124626435364,2.4426046844968985
2.2528659867884273,2.017905785031998,2.8109526187140874,2.3474240036959353
2.1225515350543556,1.9044798985393845,2.7389523018518913,2.256519655043167
1.999275946011625,1.7972173473851125,2.668715799075108,2.16970015012929
1.8826672363091634,1.6965989659101897,2.600200258358962,2.0867825641532787
1.7723729299818443,1.6022984334608712,2.5333638665402307,2.007592153047362
1.6965596553280518,1.5200365719133138,2.468165824047235,1.9319619877211853
1.6538553407336114,1.4461063803592409,2.4045663202510674,1.859732604659624
1.6121890325895871,1.3755876962135902,2.3426551278283463,1.7907516721429162
1.5715356325282943,1.3083260059745578,2.285147024900271,1.7248736713905286
1.5318706486751215,1.2441737427855362,2.2315221927944746,1.6619595919613845
1.4931701809321127,1.1829899750826907,2.1897748692391423,1.6018766407729488
1.4554109066225476,1.1246401091794613,2.14880824702062,1.5444979641301806
1.418570066487477,1.0689956051644547,2.108605726075464,1.4897023821825848
1.3826254510254028,1.0159337055171158,2.0691511639361284,1.4373741352536284
1.347555387166514,0.9653371758721844,2.030428858694342,1.3874026415116338
1.3133387252731232,0.9170940573893923,1.9924235327406228,1.33968226547501
1.2799548264581573,0.8923937938752452,1.958446411783179,1.2941120968673587
1.2538340014703913,0.8710634020652045,1.9279080764283476,1.2505957393596645
1.2308105112899033,0.8502510539059916,1.8978828422586846,1.2090411087574648
1.2082141102597381,0.829944218630109,1.8683616006409238,1.169360240210688
1.1860358088040863,0.8101306684811139,1.839335421652071,1.1314691040427058
1.1642668619438004,0.7907984713516564,1.810795549783092,1.0952874298132171
1.1428987602819598,0.7719359836025438,1.7827333997811985,1.0607385382467949
1.1219232213981964,0.7535318430582792,1.75514055262495,1.0277491806754053
1.1013321816314283,0.735574962174634,1.7280087516266807,0.996249385658926
1.081117788231702,0.7180545213739359,1.7013298986570107,0.9661723124627264
1.0612723918628406,0.7009599625438606,1.675096050486453,0.9374541110857103
1.0417885394385324,0.684280982695633,1.649299415239371,0.9100337885459503
1.022658967275387,0.6680075277776408,1.6239323489557553,0.8838530811441199
1.0038765945473291,0.652129786640577,1.5989873522565143,0.8588563324374592
0.9854345170265064,0.6366381851503217,1.574457067108163,0.834990376668952
0.9673260010966465,0.6215233804448747,1.5503342736829981,0.8122044274078094
0.9495444780255136,0.6067762553317427,1.5266118873110237,0.7904499711682647
0.9320835384838049,0.5923879128222865,1.5032829555200677,0.7696806657841035
0.9149369272984744,0.5783496707996089,1.480340655160693,0.7498522433263057
0.9005305984564738,0.5646530568166684,1.4577782896126676,0.7309224173606748
0.8865248861472124,0.5512898030213759,1.435589286069899,0.7128507943514353
0.8727521806004352,0.5382518412055223,1.413767192900892,0.6955987890254206
0.8592084335450256,0.5255312979744645,1.392305677081906,0.6792433937527494
0.8458896722687562,0.5131204900345722,1.3711985217001383,0.6670887092916782
0.8327919979695396,0.5010119195955197,1.3504396235243572,0.6551511652692401
0.8199115841537639,0.4891982698845795,1.3300229906405399,0.6434265679873759
0.807244675079918,0.4776724007701417,1.3099427401501798,0.6319108221941044
0.7947875842457945,0.4664273444917669,1.2901930959290184,0.620599927954219
0.7825366929176348,0.4554563014941321,1.2707683864440744,0.609489977650366
0.7704884486996544,0.4447526363623103,1.25166304262692,0.5985771531082248
0.7586393641424631,0.43430987385588116,1.2328715958012588,0.5878577228398308
0.7469860153889533,0.4241216950394361,1.2143886756629318,0.5773280393993828
0.735525040856302,0.4141819335071054,1.1962090083105688,0.5669845368461659
0.7242531399527867,0.4044845716987884,1.1783274143251716,0.5568237283094866
0.7131670718281757,0.39734843955382826,1.1607388068970024,0.5468422036507934
0.7022636541565102,0.3907084493327797,1.1434381899981965,0.5370366272183793
0.6915397619501414,0.3841851432697493,1.126420656599612,0.5274037356903044
0.6809923264039457,0.37777630615135094,1.109681386930474,0.517940336001409
0.6706183337686757,0.3714797728384286,1.093215646779438,0.5086433033504736
0.6604148242524616,0.36529342675755716,1.0770187858357532,0.4995095792837989
0.6503788909495122,0.3592151984527897,1.0610862360692566,0.49053616985166065
0.6405076787951084,0.3532430641948173,1.045413510147999,0.48172014383426776
0.6307983835460217,0.34737504464483726,1.0299961998923162,0.4730586310340309
0.6212482507855244,0.3416092035705788,1.0148299747642522,0.46454882063110076
0.6118545749521946,0.33594364661204246,0.9999105803912494,0.4577183779208097
0.6026146983917547,0.33037652009465857,0.98523383712308,0.4520938589822644
0.5935260104312078,0.3249060098876547,0.9707956386210327,0.44672778675323127
0.5845859464745738,0.3195303403055645,0.9565919504784022,0.44160844699375984
0.5757919871195509,0.31424777305088514,0.9426188088713737,0.4367246511961024
0.5671416572944564,0.3090566061960134,0.928872319239419,0.43206571306464386
0.5586325254148294,0.30395517320266674,0.915348654994371,0.42762142604723263
0.5502622025590987,0.29894184197709717,0.9020440562573534,0.4233820418709174
0.5420283416627469,0.29401501395947727,0.8889548286227954,0.4193382500371914
0.5339286367304216,0.28917312324593725,0.8760773419487761,0.41548115823385745
0.5259608220654677,0.28441463574178216,0.8634080291729717,0.41180227362254207
0.5181226715163736,0.2797380483445159,0.8509433851535191,0.4082934849627166
0.5104119977396459,0.2751418881553459,0.8386799655341135,0.40494704553483746
0.5028266514786439,0.270624711717926,0.8266143856326995,0.4017555568268859
0.4953645208579251,0.26618510428313746,0.8147433193531317,0.398711952950185
0.48802353069266535,0.2618216790987834,0.8030634981192009,0.39580948575189673
0.48080164181274176,0.257533076723119,0.7915717098304469,0.39304171059305976
0.47369685040107223,0.25331796436118703,0.7802647978392021,0.39040247276242235
0.46670718734582756,0.24917503522299445,0.7691396599483158,0.3878858944976479
0.45983071760614314,0.24510300790259743,0.7581932474290449,0.3854863625867509
0.4530655395909704,0.24110062577721048,0.7474225640586083,0.38319851652382475
0.4464097845507228,0.23716665642550838,0.7368246651769064,0.3831356939666931
0.4398616159813811,0.2332998910643136,0.7263966567619486,0.3842525963890271
0.43341922904073826,0.22949914400291271,0.7161356945235273,0.38528149924851063
0.4270808499764691,0.22576325211428017,0.706038983014686,0.3862268360038995
0.4208447355657289,0.22209107432251585,0.6961037747605863,0.3870928342403329
0.41470917256598727,0.2184814911058368,0.6863273694043206,0.3878835249974516
0.40867247717682037,0.214933404014511,0.6767071128693023,0.3886027516784234
0.40273299451238725,0.21144573520311905,0.6672403965378382,0.3892541785586434
0.39688909808433315,0.2080174269765912,0.6579246564454972,0.38984129891204256
0.3911391892948618,0.2046474413494701,0.6487573724909246,0.3903674427721324
0.38548169693973633,0.20133475961788672,0.6397360676607466,0.3908357843441518
0.3799150767209684,0.19807838194375738,0.6308583072692189,0.3912493490839424
0.3744378107689683,0.19487732695073035,0.6221216982122926,0.39161102045848806
0.3690484071739338,0.19173063133144042,0.6135238882357754,0.3919235464023799
0.3637453995262615,0.18863734946563804,0.605062565217269,0.3921895454838311
0.3585273464657739,0.18559655304879508,0.5967354564615983,0.3924115127932596
0.35339283123955856,0.1826073307307846,0.5885403280094048,0.3925918255668692
0.34834046126822454,0.17966878776428108,0.5804749839586578,0.39273274855710794
0.34336886772038655,0.1767800456625126,0.5725372657987753,0.39283643916134514
0.33847670509519073,0.17394024186603763,0.564725051757099,0.3929049523196123
0.3336626508127058,0.1711485294182148,0.5570362561574489,0.3929402451917491
0.3289254048120035,0.16840407664906332,0.5494688287905254,0.39294418162385625
0.3242636891567614,0.16570606686721978,0.5420207542958766,0.39291853641348984
0.319676247648224,0.16305369805970105,0.5346900515552213,0.39286499938263064
0.3151618454453623,0.16044618259921684,0.5274747730968674,0.3927851792670435
0.3107192686920779,0.1578827469587636,0.5203730045110133,0.39268060743026
0.30634732415130245,0.1553626314332579,0.5133828638757014,0.3925527414100537
0.30204483884584227,0.15288508986797544,0.5065025011932023,0.3924029683049195
0.29781065970583237,0.15044938939356522,0.49973009783663147,0.39223260800773285
0.2936436532226547,0.14805481016742628,0.49306386600657115,0.3920429162934468
0.2895427051091907,0.1457006451212406,0.48650204819752263,0.3918350877673765
0.28550671996627697,0.14338619971445976,0.4800429166739648,0.3916102586803232
0.2815346209552314,0.1411107916935641,0.4736847729558442,0.39136950961651795
0.277625349476333,0.13887375085690146,0.46742594731331377,0.3911138680600901
0.2737778648531284,0.13667441882494025,0.46126479827051736,0.39084431084551474
0.26999114402244995,0.13451214881576556,0.45519971211826715,0.3905617664972457
0.26626418123002876,0.13238630542565655,0.449229102435418,0.3902671174635147
0.2625959877315926,0.13029626441459785,0.44335140961878916,0.3899612022490384
0.25898559149933803,0.1282414124965675,0.4375651004214507,0.3896448174511856
0.25543203693366795,0.12622114713446797,0.43186866749922137,0.38931871970393406
0.25193438458009654,0.12423487633955888,0.42626062896522776,0.3889836275337566
0.24849171085121313,0.12228201847526532,0.4207395279523436,0.3886402231314008
0.24510310775361127,0.12036200206523084,0.4153039321833978,0.3882891540433344
0.24176768261968273,0.11847426560549612,0.40995243354896727,0.38793103478647173
0.238484557844184,0.11661825738068976,0.4046836476926292,0.3875664483896255
0.23525287062548295,0.11479343528411501,0.3994962136035325,0.38719594786498246
0.23207177271139362,0.11299926664162896,0.3943887932161432,0.3868200576127433
0.22894043014951393,0.11123522803920627,0.38936007101703085,0.38643927476193807
0.22585802304197905,0.10950080515409077,0.3844087536585694,0.38605407045028406
0.22282374530454535,0.10779549258943988,0.3795335695794182,0.3856648910458308
0.21983680442992365,0.10611879371236188,0.3747332686316538,0.3852721593130082
0.21689642125528297,0.10447022049527122,0.3700066217144431,0.38487627552558257
0.21400182973384313,0.10284929336045612,0.3653524204141223,0.3844776185289104
0.21115227671048248,0.10125554102779388,0.3607694766505656,0.384076546753768
0.20834702170128255,0.09968850036552468,0.356256622329737,0.38367339918394594
0.20558533667693935,0.09814771624400342,0.3518127090023031,0.3832684962796796
0.20286650584996746,0.09663274139236411,0.34743660752819916,0.38286214085891546
0.20018982546562636,0.09514313625801873,0.34312720774703487,0.38245461893830646
0.197554603596501,0.0936784688689214,0.33888341815424505,0.38204620053575455
0.19496015994066895,0.09223831469853039,0.3347041655828664,0.3816371404362333
0.19240582562338793,0.09082225653340437,0.33058839489084657,0.3812276789225425
0.1898909430022403,0.0894298843433714,0.326535068653786,0.380818042472583
0.18741486547566794,0.08806079515420284,0.32254316686301054,0.38040844442465904
0.18497695729483948,0.08671459292274031,0.3186116866288784,0.37999908561224705
0.18257659337878857,0.08539088841441755,0.314739641889233,0.37959015496961535
0.18021315913275898,0.08408929908311724,0.31092606312289606,0.3791818301096076
0.17788605026970622,0.08280944895331255,0.3071699970681343,0.3787742778748462
0.1755946726348916,0.08155096850444543,0.30347050644598084,0.37836765486355994
0.17333844203351667,0.08031349455747949,0.29982666968834737,0.3779621079311787
0.17111678406134156,0.07909667016359567,0.2962375806708335,0.37755777466879303
0.16892913393823528,0.0779001444949623,0.29270234845014476,0.3771547838595245
0.16677493634460305,0.07672357273755614,0.28922009700605056,0.3767532559138048
0.1646536452606399,0.07556661598597247,0.28578996498778086,0.3763533032845202
0.16256472380836245,0.07442894114018639,0.2824111054648084,0.3759550308629307
0.16050764409636342,0.07331022080422989,0.2790826856819131,0.37555853635623315
0.15848188706724808,0.07221013318672931,0.27580388681847223,0.37516391064760657
0.1564869423476964,0.07112836200327921,0.27257390375189305,0.3747712381395244
0.1545223081011124,0.07006459638060425,0.2693919448251123,0.37438059708109883
0.1525874908828081,0.06901853076247155,0.26625723161809844,0.3739920598801795
0.15068200549768124,0.06798986481732372,0.2631689987232826,0.3736056934008968
0.14880537486034068,0.06697830334758892,0.26012649352484285,0.3732215592473138
0.14695712985763693,0.06598355620063867,0.2571289759817861,0.3728397140338139
0.1451368092135552,0.06500533818135856,0.25417571841475195,0.3724602096428299
0.14334395935642985,0.06404336896629692,0.2512660052964759,0.37208309347048785
0.1415781342884363,0.06309737301936358,0.24839913304584527,0.3717084086607182
0.13983889545732758,0.06216707950904099,0.2455744098254964,0.3713361943283532
0.1381258116303652,0.06125222222708682,0.24279115534286766,0.370966485771721
0.1364384587704171,0.0603525395086878,0.24004870065467565,0.37059931467520457
0.13477641991417666,0.05946777415404392,0.23734638797473573,0.3702347093022317
0.13313928505246836,0.05859767335135302,0.2346835704850716,0.369872694679126
0.13152665101260574,0.057741988601165084,0.23205961215026583,0.36951329277024125
0.12993812134276117,0.056900475642080894,0.22947388753498532,0.3691565226447723
0.1283733061983156,0.05607289437777496,0.22692578162462262,0.36880240063562697
0.1268318222301535,0.05525900880530421,0.22441468964901845,0.3684509404907158
0.12531329247486805,0.054458586944694964,0.22194001690919274,0.36810215351701703
0.1238173462468437,0.053671400769762845,0.21950117860703156,0.3677560487177357
0.1223436190321825,0.05289722614016312,0.21709759967789855,0.3674126329228803
0.12089175238444472,0.0521358427346319,0.21472871462609633,0.3670719109135573
0.1194613938221688,0.05138703398540634,0.21239396736314387,0.3667338855402734
0.11805219672814304,0.05065058701379255,0.21009281104881472,0.3663985578355142
0.11666382025039529,0.04992629256686909,0.20782470793488894,0.3660659271208716
0.11529592920487475,0.04921394495529552,0.20558912921157613,0.3657359911089638
0.11394819397979222,0.04851334199221402,0.2033855548565533,0.365408746000389
0.11262029044159272,0.04782428493321389,0.20121347348658492,0.3650841865759443
0.11131189984253342,0.04714657841735259,0.19907238221167156,0.36476230628432416
0.11002270872983488,0.04648003040919657,0.19696178649168705,0.3644430973255115
0.10875240885638254,0.04582445214188102,0.1948811999954585,0.36412655073005484
0.10750069709294996,0.04517965806115476,0.19283014446225155,0.36381265643442784
0.10626727534191643,0.0445454657704043,0.19080814956561487,0.3635014033526477
0.10505185045245535,0.04392169597662743,0.18881475277954496,0.3631927794443284
0.1038541341371676,0.04330817243735019,0.18684949924693606,0.36288677177933326
0.10267384289013193,0.04270472190846286,0.1849119416502587,0.362583366599187
0.10151069790635331,0.04211117409296006,0.18300164008446052,0.36228254937539106
0.1003644250025797,0.04152736159056947,0.18111816193201058,0.3619843048647976
0.0992347545394679,0.040953119848253006,0.17926108174008548,0.3616886171621678
0.09812142134507296,0.0403882871115635,0.17742998109984098,0.36139546975005366
0.09702416463963831,0.039832704376842276,0.17562444852773784,0.3611048455461249
0.0959427279616657,0.03928621534424448,0.17384407934888757,0.3608167269480621
0.09487685909524168,0.03874866637157115,0.17208847558238793,0.3605310958761284
0.09382630999859992,0.038219906428903605,0.17035724582859868,0.3602479338135297
0.0927908367338971,0.037699787054014555,0.16865000515834327,0.35996722184466934
0.0917701993981821,0.03718816230855104,0.16696637500399159,0.3596889406913911
0.09076416205553922,0.03668488873497222,0.16530598305239685,0.35941307074731055
0.08977249267038101,0.036189825314225765,0.16366846313964545,0.3591395921103244
0.08879496304187867,0.03570283342415537,0.16205345514760627,0.3588684846133796
0.08783134873950138,0.035223776798621875,0.16046060490222858,0.3585997278535893
0.08688142903965268,0.03475252148732788,0.1588895640735759,0.3583333012197736
0.08594498686338153,0.03428893581633152,0.1573399900775494,0.3580691839184984
0.08502180871515097,0.03383289034924053,0.1558115459792908,0.35780735499868255
0.08411168462264584,0.03338425784907095,0.15430390039821829,0.35754779337484877
0.0832144080776005,0.0329429132407596,0.15281672741467656,0.35729047784907164
0.08232977597763252,0.03250873357432149,0.1513497064781757,0.35703538713169647
0.08145758856906143,0.03208159798863908,0.14990252231718215,0.3567824998608835
0.0805976493906978,0.03166138767586846,0.14847486485044348,0.35653179462102913
0.07974976521858446,0.031247985846462045,0.14706642909982293,0.3562832499601296
0.07891374601167728,0.030841277694783953,0.14567691510460246,0.3560368444061256
0.07808940485844229,0.030441150365317804,0.14430602783725144,0.3557925564822887
0.07727655792436211,0.030047492919452745,0.14295347712061268,0.35555036472168844
0.07647502440033072,0.02966019630283656,0.141618977546504,0.3553102476807868
0.07568462645191998,0.029279153313288564,0.14030224839569505,0.3550721839522061
0.07490518916951067,0.0289042585692616,0.1390030135592384,0.35483615217670583
0.07413654051926283,0.02853540847884095,0.13772100146113941,0.35460213105441163
0.07337851129492112,0.028172501209276835,0.1364559449823366,0.3543700993553299
0.07263093507043272,0.027815436657035897,0.13520758138596833,0.35414003592918686
0.07189364815337013,0.02746411641836377,0.13397565224390462,0.35391191971462155
0.07116648953914129,0.02711844376035022,0.13275990336452903,0.353685729747769
0.07044930086597428,0.026778323592492437,0.1315600847217433,0.3534614451702628
0.06974192637066479,0.02644366243873919,0.1303759503851667,0.35323904523668304
0.0690442128450729,0.026114368410014466,0.12920725845152847,0.3530185093214834
0.0683560095933543,0.02579035117721118,0.12805377097721915,0.3527998169254195
0.06767716838991605,0.025471521944643194,0.12691525391197733,0.35258294768150433
0.06700754343808463,0.025157793423953856,0.12579147703371052,0.3523678813605171
0.06634699132947036,0.02484907980846629,0.12468221388440903,0.35215459787608594
0.06569537100402173,0.024545296747973455,0.1235872417071524,0.35194307728936736
0.06505254371075286,0.024246361323958077,0.12250634138417693,0.35173329981334545
0.06441837296913783,0.023952192025233687,0.12143929737599546,0.35152524581676525
0.0637927245311537,0.023662708724004222,0.1203858976615435,0.3513188958277266
0.06317546634396853,0.02337783265232707,0.11934593367933966,0.351114230536949
0.06256646851325887,0.02309748637898379,0.11831920026964271,0.3509112308007315
