jointMR1,jointMR2,jointMR3,force
6.274649621368979,5.430183836804809,7.7612905894985245,6.143147654372321
5.924688010968316,5.12884751916922,7.32238984648854,5.801177789260735
5.593644109541249,4.843766091907707,6.90730621612144,5.4776927261047375
5.280506305434612,4.5740708216535655,6.514764646751334,5.171703820921487
4.984316865121427,4.318939238640257,6.1435580175699425,4.88227509273579
4.704169068153862,4.0775926765448265,5.792543525990148,4.6085204228694
4.439204494372271,3.8492939430742954,5.460639267016114,4.349600903076353
4.188610455281134,3.633345114348633,5.146820994400064,4.104722324616148
3.9516175619326788,3.4290854465031444,4.850119053927746,3.873132800776711
3.727497422065541,3.2358893982822328,4.569615479687572,3.654120515756771
3.5155604596313714,3.0731241744841764,4.304441244664243,3.447011593194066
3.3151538502068623,2.932490667411184,4.053773657457688,3.2511680779823604
3.1256595661342335,2.798176122546594,3.821433047424423,3.0659860253579843
2.946492525560274,2.669899957393258,3.6026568958502914,2.8908936915563834
2.7770988398536507,2.547393985905212,3.395820889350608,2.7253498206419335
2.6169541541735755,2.430401871967871,3.2002839564846637,2.5688420224009816
2.465562076240483,2.3186786069499106,3.0154392325734376,2.4561557825193305
2.322452688622359,2.211990010267073,2.8660986506673916,2.3662866223500663
2.1871811400992778,2.1101122519447224,2.785965338603439,2.2803278341102455
2.0593263119044956,2.012831396210614,2.7079826150603417,2.198108040018415
1.9384895548635803,1.919942965191959,2.6320930219713743,2.1194633908609015
1.824293493664476,1.8312515218316348,2.5722886217931906,2.0442372349229347
1.7163808946914934,1.7465702711773294,2.5155914626232834,1.972279801485509
1.6196429398077536,1.6657206792346837,2.460179299131159,1.9034478982469993
1.5825526963068828,1.5885321086110993,2.4060208195806676,1.8376046220567577
1.5462971817574422,1.514841470210904,2.3530855882493693,1.7746190823749044
1.510857280159084,1.4444928902751348,2.301344015722922,1.7143661368982814
1.4762143346192267,1.3773373920902836,2.250767330405763,1.6567261388172108
1.44235013522519,1.3132325917201224,2.2013275511912864,1.601584695191232
1.4092469072898677,1.2520424071431264,2.152997461237584,1.548832435954549
1.3768872999570663,1.193636780205219,2.1057505827975,1.49836479308342
1.3452543751532977,1.137891410823532,2.0595611530543203,1.4500817894783355
1.314331596873337,1.1025255019533795,2.0144041009168423,1.4038878371334857
1.2841028207874445,1.0728488599628998,1.9702550247298611,1.3596915441848554
1.2545522841586352,1.0439648229675702,1.9270901708583084,1.3174055304462458
1.2256645960588948,1.015852235946646,1.8848864131053351,1.2769462510597434
1.197424727873703,0.9884905093533064,1.8436212329266013,1.2382338279035572
1.1698180040846728,0.9618596039408197,1.803272700404892,1.201191888415909
1.142830093320551,0.9359400159989454,1.7638194559509526,1.165747411508626
1.1164469996672128,0.910712762989338,1.7252406926981005,1.131830580258496
1.0906550542276947,0.8861593695690312,1.6875161395597766,1.0993746410781429
1.0654409069236614,0.8622618539913848,1.6506260449206875,1.0683157690813194
1.0407915185300636,0.8390027148741707,1.6145511609336387,1.0385929393700533
1.0166941529350793,0.8163649183247724,1.5792727283955053,1.0101478039830911
0.9931363696177424,0.7943318854127351,1.5447724621770786,0.9829245742565245
0.9701060163359889,0.7728874799801958,1.5141078063003173,0.9568699083584823
0.947591222018118,0.7540909755616314,1.4850112294225026,0.9319328037702166
0.9255803898509569,0.737549524551997,1.456593038085207,0.9080644944959549
0.9040621905582888,0.7213736832291304,1.4288330211026887,0.8852183527934528
0.883025555863342,0.7055552501272786,1.401711740091807,0.8633497952263468
0.8624596721293925,0.6900862136272425,1.375210494270013,0.8424161928481542
0.8423539741727595,0.6749587472724783,1.3493112870079202,0.8223767853361369
0.822698139242692,0.6601652052148919,1.3239967940455393,0.8031925989012509
0.803482081162857,0.6456981177860674,1.2992503332860559,0.7848263678080359
0.7846959446293464,0.6315501871898499,1.275055836085555,0.7672424593456336
0.7663300996603012,0.6177142833123654,1.2513978199613947,0.7504068020980867
0.7483751361924471,0.6041834396457018,1.228261362645979,0.7342868173687724
0.7308218588200026,0.5909508493216296,1.2056320774165465,0.7188513536202039
0.7136612816715973,0.5780098612518787,1.1834960896352162,0.704070623796535
0.6968846234209916,0.5653539763716104,1.161840014437007,0.6899161454019542
0.6804833024275458,0.5529768439828677,1.1406509355067915,0.6763606832137173
0.6644489320025392,0.5408722581948895,1.119916384889263,0.663378194513922
0.648773315797568,0.5290341544583057,1.0996243237789134,0.6509437767292109
0.6334484433114038,0.5174566061903298,1.0797631242398003,0.6390336173724809
0.6184664855118047,0.506133821488179,1.0603215518075215,0.6276249461853215
0.603819790568911,0.49506013992804626,1.0412887489282916,0.6166959893843805
0.5895008796969649,0.484230029447057,1.0226542191923875,0.6062259259190953
0.5755024431012153,0.4736380833057225,1.004407812321463,0.596194845652317
0.5618173360269725,0.46327901712849645,0.9865397098713438,0.5865837093792368
0.5484385749078817,0.4531476660201344,0.9690404116139318,0.5773743106037562
0.5353593336105933,0.4432389817556231,0.951900722563733,0.5685492389949864
0.5233128709369023,0.43354803004153614,0.9351117406163353,0.5600918454499817
0.5117705026281071,0.4240699878467405,0.9186648447678604,0.5519862086920496
0.5004796686614295,0.4148001408004551,0.9025516838860332,0.5442171033370948
0.48943480870862255,0.4057338806557284,0.8867641660050316,0.5367699693634267
0.4786304916517064,0.3968667028164687,0.8712944481177467,0.5296308829232976
0.469457656523442,0.388194203926224,0.8561349264404343,0.5227865284371622
0.46090714620552004,0.3797120795169718,0.8412782271260568,0.5162241719142351
0.45253515113899845,0.37141612171623334,0.8267171974038379,0.5099316354454163
0.4443372137162429,0.36330221701088444,0.812444897123715,0.5038972728170173
0.43630901799170013,0.3553663440660902,0.7984545906854967,0.49810994619600224
0.4284463839906809,0.34760457159784014,0.7847397393335498,0.4925590038396104
0.42074526228479414,0.34001305629761464,0.7712939937988763,0.4872342587843162
0.4132017288205615,0.3325880408077542,0.758111187271326,0.4821259684710541
0.405811979988446,0.3253258517461521,0.7451853286856411,0.4772248152655359
0.39857232792019337,0.3182228977789397,0.7325105963058114,0.472521887834297
0.391479196003013,0.3112756677398703,0.720081331593073,0.4680086633388423
0.38452911459972294,0.3044807287951444,0.7078920333436014,0.46367699041191507
0.3777187169645494,0.2978347246524738,0.695937352082693,0.45951907288149785
0.37104473534480453,0.2913343738132031,0.6842120847028859,0.4555274542096652
0.36450399725917626,0.2849764678663466,0.6727111693341388,0.45169500261485734
0.35809342194384164,0.27875786982345035,0.6614296804347832,0.4480148968475233
0.35181001695807235,0.27267551249319494,0.650362824092539,0.44448061259040467
0.3456508749414313,0.2667263968947114,0.6395059335254474,0.4410859094559998
0.33961317051506884,0.2609075907085993,0.6288544647730765,0.4378248185549501
0.3336941573200118,0.25521622676467476,0.6184039925688636,0.4346916306102465
0.32789116518570915,0.24964950156549753,0.6081502063849153,0.43168088459326337
0.32220159742244153,0.24498186071840086,0.5980889066410178,0.4287873568586757
0.3166229282315334,0.24057289171012738,0.5882160010700657,0.4260060507563298
0.3111527002276185,0.23625127608336224,0.5785275012324671,0.4233321866990999
0.30578852206750373,0.23201506014998427,0.5690195191724947,0.42076119266668616
0.30052806618045697,0.22786234034406436,0.5596882642098928,0.41828869512619143
0.29536906659501044,0.22379126173956213,0.5505300398603956,0.41591051035115706
0.2903093168576221,0.2198000166178107,0.5415412408791256,0.41362263612154393
0.28534666803877473,0.2158868430829428,0.532718350421147,0.41142124378791295
0.2804790268223208,0.21205002372348855,0.5240579373137495,0.40930267068380227
0.27570435367409224,0.2082878843184441,0.5155566534352882,0.40726341287099305
0.2710206610859992,0.20459879258617356,0.5072112311956785,0.40530011820303774
0.26642601189203274,0.2009811569745786,0.4990184811138918,0.4034095796930623
0.26191851765276863,0.1974334254910238,0.4909752894880277,0.40158872917247196
0.25749633710514364,0.19395408457057142,0.48307861615374525,0.3998346312277768
0.2531576746744361,0.19054165798113207,0.4753254923270769,0.3981444774033164
0.2489007790455416,0.18719470576419409,0.4677130185278098,0.3965155806581999
0.24472394179077717,0.1839118232098461,0.46023836257983985,0.3949453700662926
0.24062549605159145,0.18069163986485662,0.45289875768504695,0.3934313857485697
0.2366038152716861,0.177532818572625,0.4456915005674671,0.39197127402762816
0.23265731197918146,0.17443405454386032,0.43861394968460554,0.39056278279459833
0.22878443661557712,0.17139407445689211,0.4316635235030022,0.38920375707912297
0.22498367640937147,0.1684116355865591,0.4248376988351923,0.3878921348134852
0.2212535542923099,0.16548552496065919,0.4181340092354253,0.3866259427823549
0.2175926278563323,0.16261455854298876,0.41155004345160306,0.3854032927500028
0.2139994883493889,0.15979758044203093,0.4050834439309996,0.3842223777571866
0.21047275970838009,0.1570334621443936,0.3987319053774876,0.38308146858025793
0.20701109762756664,0.15432110177212652,0.3924931733580854,0.38197891034536413
0.20361318866087558,0.15165942336308688,0.3863650429567169,0.38091311929093724
0.20027774935660464,0.14904737617354877,0.3803453574732336,0.3798825796719552
0.1970035254231039,0.1464839340022849,0.3744320071657925,0.37888584079975335
0.1937892909240807,0.14396809453537704,0.3686229280348008,0.37792151421143233
0.19063384750224052,0.14149887871104214,0.362916100646713,0.37698827096317344
0.1875360236300408,0.13907533010378534,0.35730954899604894,0.3760848390420217
0.18449467388639182,0.13669651432721677,0.35180133940408265,0.37521000089093753
0.18150867825819791,0.13436151845489727,0.3463895794527172,0.3743625910421416
0.17857694146568293,0.13206945045859772,0.34107241695214263,0.3735414938540035
0.1756983923104969,0.12981943866338266,0.335848038940912,0.3727456413469274
0.17287198304564902,0.1276106312189493,0.33071467071718375,0.3719740111338896
0.17009668876635653,0.1254421955866746,0.32567057489987605,0.3712256244414785
0.1673715068209426,0.12331331804184367,0.32071405051858837,0.3704995442174586
0.16469545624096016,0.12122320319055066,0.3158434321311592,0.36979487332106936
0.16206757718975298,0.11917107350078507,0.3110570889678159,0.3691107527924229
0.15948693042870865,0.11715616884723043,0.3063534241008896,0.3684463601975385
0.1569525968004863,0.11517774606932393,0.3017308736391282,0.3678009080456844
0.15446367672854192,0.11323507854213696,0.29718790594568856,0.3671736422758671
0.15201928973230175,0.11132745575965816,0.29272302087892266,0.36656384080942767
0.1496185739573653,0.10945418293007089,0.2883347490551116,0.3661265352465385
0.14726068572014978,0.10761458058263526,0.28402165113234323,0.36590981410899004
0.14494479906641322,0.10580798418579704,0.2797823171147684,0.36568478267789484
0.14267010534311916,0.10403374377615973,0.27561536567648703,0.3654519824127127
0.1404358127831323,0.10229122359796924,0.2715194435043766,0.3652119286221147
0.13824114610225668,0.10057980175277473,0.267493224659173,0.36496511164778866
0.1360853461081485,0.09889886985893723,0.26353540995417113,0.36471199799566223
0.13396766932066098,0.09724783272067408,0.2596447263509256,0.3644530314168737
0.13188738760319324,0.09562610800633478,0.25581992637136053,0.364188633940703
0.1298437878046395,0.09403312593561583,0.2520597875257229,0.36391920686158685
0.12783617141154904,0.09246832897543436,0.24836311175583625,0.363645131682245
0.12586385421012616,0.09093117154418459,0.24472872489315067,0.3633667710148547
0.12392616595771672,0.08942111972411884,0.2411554761310737,0.36308446944213046
0.12202245006344023,0.08793765098159714,0.23764223751111446,0.3627985543400719
0.1201520632776458,0.08648025389496058,0.23418790342238505,0.3625093366640836
0.11831437538987916,0.08504842788979458,0.2307913901140295,0.36221711170007564
0.11650876893506668,0.08364168298135069,0.22745163522014478,0.3619221597820984
0.11473463890762914,0.0822595395239106,0.22416759729680003,0.36162474697798896
0.11299139248325715,0.0809015279668773,0.22093825537077327,0.36132512574444065
0.11127844874808399,0.07956718861738885,0.2177626084996227,0.3610235355528496
0.10959523843500885,0.0782560714092568,0.2146396753427442,0.3607202034872322
0.10794120366693083,0.07696773567803769,0.21156849374307574,0.3604153448154417
0.10631579770666469,0.07570174994205284,0.2085481203191082,0.36010916353487266
0.10471848471331752,0.07445769168917685,0.205577630066899,0.3598018528937753
0.10314873950491871,0.07323514716922444,0.2026561159717779,0.35949359588926255
0.10160604732709733,0.07203371119176497,0.19978268862945936,0.35918456574303903
0.1000899036276163,0.07085298692920736,0.19695647587626763,0.3588749263558382
0.09859981383657601,0.06969258572499706,0.19417662242822042,0.3585648327415081
0.09713529315210873,0.06855212690677523,0.19144228952870157,0.3582544314416536
0.09569586633139252,0.06743123760435385,0.18875265460447,0.35794386092168406
0.09428106748681978,0.06632955257236697,0.18610691092977372,0.3576332519491007
0.09289043988716345,0.06524671401746016,0.18350426729832825,0.35732272795480413
0.09152353576358555,0.06418237142988867,0.18094394770292865,0.35701240537817647
0.09017991612034557,0.06313618141939445,0.1784251910225092,0.3567023939966556
0.08885915055006569,0.06210780755524001,0.17594725071639572,0.35639279724049044
0.08756081705341778,0.06109692021027971,0.17350939452559944,0.35608371249333115
0.08628450186310274,0.06010319640895331,0.1711109041809149,0.3557752313792877
0.08502979927199636,0.05912631967908891,0.16875107511767062,0.3554674400370469
0.08379631146534008,0.0581659799074081,0.1664292161969254,0.3551604193816361
0.0825836483568631,0.05722187319862873,0.16414464943295282,0.35485424535436694
0.08139142742871988,0.056293701738063,0.16189670972683667,0.354548989161494
0.08021927357513883,0.05538117365761433,0.15968474460602144,0.3542447175020834
0.07906681894967588,0.05448400290507585,0.1575081139696497,0.35394149278557463
0.07793370281597312,0.05360190911664084,0.1553661898395502,0.3536393733394897
0.07681957140192586,0.0527346174925338,0.1532583561167129,0.3533384136077279
0.07572407775716464,0.051881858675678044,0.15118400834312462,0.3530386643398685
0.0746468816137619,0.051043368633313796,0.14914255346881222,0.35274017277187397
0.07358764925007663,0.050218888541487955,0.1471334096239767,0.35244298279858255
0.07254605335765194,0.04940816467233525,0.14515600589606859,0.3521471351383515
0.0717061305179238,0.048610948284076166,0.14320978211170665,0.3518526674902013
0.07125384979506988,0.04782699551365674,0.14163636729255225,0.3515596146837967
0.0708117755906717,0.047056067271959184,0.14041030653648745,0.3512680088225768
0.07037962241145129,0.046297929141513955,0.13920716647924158,0.35097787942034897
0.0699571127202184,0.045552351276646835,0.13802643453448615,0.35068925353162983
0.06954397671823928,0.04481910830599381,0.13686760983352908,0.3504021558760143
0.06913995213348029,0.04409797923732331,0.13573020295835536,0.3501166089568418
0.06874478401456899,0.043388747364602215,0.13461373568072643,0.34983263317440916
0.06835822453031978,0.042691200177246896,0.13351774070720102,0.34955024693397785
0.06798003277467488,0.0420051292715031,0.13244176142994046,0.3492694667488043
0.0676099745769157,0.04133033026389546,0.13138535168317111,0.3489903073384192
0.06724782231700349,0.04066660270669545,0.13034807550518068,0.34871278172236564
0.06689335474591165,0.04001375000535404,0.1293295069057061,0.3484369013095969
0.06654635681081628,0.03937157933784732,0.12832922963861204,0.34816267598373474
0.06620661948501447,0.03873990157588528,0.12734683697972016,0.3478901141843682
0.06587393960244392,0.038118531207937706,0.1263819315096888,0.3476192229845677
0.06554811969668015,0.0375072862640273,0.12543412490181516,0.34735000816479344
0.06522896784429161,0.036905988242247306,0.12450303771465743,0.34708247428334904
0.06491629751243572,0.03631446203695729,0.12358829918936554,0.3468166247435429
0.06460992741058219,0.03573253586861644,0.12268954705160828,0.3465524618577003
0.06430968134625259,0.03516004121521063,0.12180642731800262,0.3462899869081708
0.06401538808466889,0.03459681274523471,0.12093859410693142,0.346029200205464
0.06372688121220577,0.03404268825218884,0.1200857094536576,0.3457701011436438
0.06344399900354461,0.033497508590552755,0.1192474431296422,0.34551268825310344
0.06316658429243024,0.03296111761319928,0.1184234724659563,0.34525695925084
0.06289448434593309,0.03243336211021189,0.11761348218070267,0.34500291108834
0.06262755074212295,0.03191409174907059,0.11681716421036592,0.3447505399971885
0.062365639251063004,0.03140315901617344,0.11603421754497734,0.34449984153249347
0.0621086097190344,0.030900419159658327,0.11526434806703434,0.34425081061423735
0.06185632595590501,0.030405730133496373,0.11450726839407399,0.3440034415666402
0.06160865562555759,0.029918952542821037,0.11376269772481873,0.3437577281556279
0.06136547013929544,0.02943994959046689,0.11303036168882241,0.34351366362449
0.06112664455214528,0.02896858702468577,0.1123099921995252,0.34327124072781123
0.06089205746197962,0.028504733088012907,0.11160132731064865,0.3430304517637509
0.06066159091138257,0.028048258467253534,0.1109041110758544,0.3427912886047516
0.06043513029218578,0.02759903624456514,0.11021809341158662,0.3425537427267411
0.06021256425260213,0.02715694184960657,0.10954302996303822,0.3423178052369006
0.05999378460688767,0.026721853012729252,0.10887868197314932,0.34208346690006464
0.05977868624746363,0.026293649719185547,0.1082248161545929,0.3418507181638135
0.05956716705943241,0.026044999804034297,0.10758120456466935,0.3416195491823171
0.05935912783742281,0.026087638686364295,0.10694762448303674,0.34138994983898974
0.05915447220470221,0.0261291159663265,0.10632385829222146,0.3411619097680081
0.05895310653449426,0.02616944640584426,0.10570969336085367,0.34093541837474517
0.058754939873443046,0.026208644844012446,0.1051049219295419,0.3407104648551714
0.05855988386716543,0.026246726180421093,0.10450934099935338,0.3404870382142662
0.05836785268783584,0.026283705359454845,0.10392275222282632,0.3402651272834908
0.05817876296374824,0.02631959735551831,0.10334496179745534,0.3400909240270564
0.057992533710802374,0.026354417159143217,0.10277578036160828,0.3399372448455216
0.05780908626586212,0.026388179763935565,0.10221502289279694,0.339784471113774
0.057628344221935496,0.026420900154318805,0.1016625086082763,0.3396325874538662
0.05745023336512747,0.026452593294036014,0.10111806086788988,0.33948157895837233
0.05727468161331725,0.0264832741153746,0.1005815070791336,0.3393314311727204
0.057101618956514,0.026512957509073565,0.10005267860438027,0.3391821300782478
0.0569309773988452,0.02654165831488492,0.09953141067020588,0.33903366207594104
0.05676269090213415,0.026569391312752405,0.0990175422787889,0.3388860139708381
0.05659669533102299,0.026596171214578357,0.09851091612132024,0.3387391729570601
0.056432928399600124,0.026622012656549898,0.09801137849338182,0.338593126603449
0.056271329619491106,0.026646930191994045,0.09751877921226093,0.33844786283978445
0.05611184024937324,0.026670938284737877,0.09703297153613222,0.3383033699435553
0.05595440324587608,0.02669405130294436,0.09655381208509217,0.33815963652726305
0.05579896321582936,0.026716283513404188,0.09608116076398443,0.33801665152623417
0.05564546636982276,0.026737649076255227,0.09561488068698543,0.33787440418692066
0.055493860477041856,0.026758162040111833,0.09515483810390557,0.33773288405566865
0.055344094821345224,0.026777836337579963,0.09470090232817108,0.33759208096793214
0.05519612015854955,0.026796685781138918,0.09425294566644205,0.33745198503791973
