jointFR1,jointFR2,jointFR3,force
6.107268125405414,5.740673584575046,7.573405053419846,6.143163849441095
5.7675486962052185,5.423778399459619,7.14275307674593,5.801210519481244
5.446176764382413,5.123961804647586,6.735501930920364,5.477737784906165
5.1421716096248185,4.8403114908379195,6.350398327201394,5.171757429404292
4.854604734101407,4.5719637193599425,5.986255755885157,4.882333869238451
4.58259708571033,4.318100739721226,5.641950934826694,4.608581354379867
4.325316428885134,4.077948344387138,5.3164204467015,4.349661318384317
4.081974855119765,3.850773553501133,5.008657554980035,4.104779869107971
3.8518264257894708,3.6358824226425384,4.743561886474704,3.873185412780131
3.634164940238921,3.4326179670849375,4.513327286275663,3.654166404347638
3.42832182248236,3.2403581963657846,4.293600062492536,3.4470492173821086
3.2336641202140335,3.0585142533064693,4.083910999166071,3.2511961271975363
3.049592610161971,2.886528651933556,3.8838116569338,3.0660034011632478
2.875540004135132,2.723873609046559,3.692873456182083,2.8908994905167766
2.7109692504140894,2.570049464456882,3.523866460722645,2.7253433182837483
2.5553719254196037,2.4245831851867674,3.3795113384411666,2.568822658198353
2.408266710862583,2.2870269491673985,3.240833994955972,2.420852599789306
2.269197951833639,2.1569568042123013,3.1076124106538963,2.2809740950529966
2.137734291531853,2.0342990393373084,2.979633240559394,2.1487525823787914
2.013467378560678,1.9192164485125975,2.856691475431186,2.035385394966862
1.8960106429353438,1.8103763184622734,2.738590116099997,1.9361874963926782
1.7849981371508825,1.707444911574518,2.627345432441147,1.8415643577319807
1.7032602657140201,1.6101062503049854,2.5732239994739152,1.7513091994398697
1.634217841595211,1.5182253890768838,2.5204086711172207,1.6652245233501912
1.5678964053233668,1.4577231818833825,2.4688613120784226,1.5831216970994093
1.5041893026745219,1.3996097932758877,2.418545099390609,1.5048205571421265
1.445302174642362,1.3437914781458244,2.3694244721251208,1.4301490295267165
1.3889175176085968,1.2901781606366434,2.321465083148139,1.358942767636763
1.334751509083022,1.2386832906832954,2.27463375283571,1.291044806139482
1.2827170864625839,1.189223706158343,2.22889842466524,1.2263052304162765
1.2327305954784589,1.1417195004056186,2.184228122604973,1.194456469826413
1.1847116569288414,1.0960938949509005,2.1405929102262937,1.1689634312167456
1.1385830386197828,1.0522731171873152,2.10494955980218,1.1442412352190139
1.0942705323105908,1.010186282841061,2.0747160675439695,1.1202618223260175
1.051702835468243,0.9697652830306656,2.0449781822753272,1.0969982675785053
1.0108114376429198,0.9309446757402722,2.015725883043217,1.074424732179969
0.9715305112840905,0.8936615815344708,1.9869494322468668,1.0525164172275108
0.946874625143918,0.8578555833489345,1.9586393644693363,1.0312495194651548
0.9283134477971727,0.8234686301975875,1.9307864758408362,1.010601188970154
0.9102180235004302,0.7904449446432646,1.9033818139065506,0.9905494886868114
0.8925718413186885,0.7587309338847992,1.8764166679731458,0.9710733557261361
0.8753591416662989,0.7284672015915306,1.8498825599095012,0.9521525643532928
0.8585648782003961,0.6994669741775592,1.8237712353784827,0.9337676905882685
0.8421746817159981,0.6716026090648881,1.798074655477791,0.9159000783484924
0.8261748259366315,0.6448297110301744,1.7727849887690743,0.898531807065319
0.8105521950999574,0.6191056193026832,1.7478946036755751,0.8816456607093077
0.7952942532432506,0.5943893398066802,1.723396061229626,0.8652250981621185
0.7803890150985932,0.5706414800508921,1.6992821081522742,0.8492542248756142
0.7658250185124821,0.5579809475607683,1.6755456702482499,0.8337177657613924
0.7515912983090487,0.5475895082955146,1.6521798461003683,0.8186010392564953
0.7376773615203978,0.53744682892715,1.6291779010482836,0.8038899325134538
0.7240731639116346,0.5275443944530934,1.606533261437305,0.7895708776651231
0.7107690877319934,0.5178740722350906,1.5842395091237258,0.7756308291169675
0.697755920627134,0.5084280926408495,1.5622903762238263,0.7620572418215553
0.6850248356511155,0.4991990307037203,1.540679740094379,0.7488380504920285
0.6725673723198253,0.4901797887463729,1.519401618533115,0.7359616497132334
0.6603754186507367,0.48136357991727785,1.4984501651882216,0.7234168749110298
0.6484411941367952,0.47274391259154314,1.4778196651664908,0.7111929841420486
0.6367572336050112,0.4643145755902135,1.4575045308302983,0.6992796406678388
0.6253163719129518,0.4560696241745993,1.437499297774088,0.6876668962789496
0.6141117294388304,0.4480033667744999,1.4177986209715243,0.6763451753360098
0.6031366983232215,0.4401103524113761,1.3983972710849377,0.6653052594963388
0.5923849294226776,0.4323853587796064,1.3792901309291121,0.6545382730960119
0.5818503199376311,0.4248233809509038,1.360472192081885,0.6440356691586305
0.5715270016789494,0.4174196206688564,1.3419385516344153,0.6337892160033343
0.5614093299394236,0.4101694762022795,1.323684409074335,0.6237909844257928
0.551491872938247,0.4030685327277569,1.3057050632953722,0.6140333354270905
0.543281149684317,0.39611255321331684,1.287995909727332,0.6045089084665217
0.5354001892786168,0.38929746977667223,1.270552437580673,0.5952106102153754
0.5276425872540246,0.3826193754928833,1.2533702272001732,0.5861316037898013
0.5200061761134523,0.3760745166276278,1.2364449475225046,0.5772652984418305
0.5124888365142699,0.3696592852735292,1.219772353632758,0.5686053396885233
0.5050884957457795,0.36337021236820055,1.2033482844152497,0.5601455998601355
0.4978031262715489,0.35720396107379493,1.1871686602941616,0.5518801690490074
0.4906307443334095,0.3511573204989157,1.171229481059793,0.5438033464417141
0.4835694086140812,0.3452271997447819,1.1555268237764291,0.5359096320177694
0.4766172189555519,0.3394106222584852,1.1400568407680185,0.528193718598918
0.469772315130482,0.3337047204770972,1.124815757678066,0.5206504842337658
0.46303287566405116,0.3281067307472507,1.1097998716003061,0.5132749849031573
0.4563971167037976,0.3226139885056316,1.0950055492769182,0.5060624475323529
0.44986329093511784,0.31722392370660013,1.0804292253611925,0.49900826329669407
0.44342968654022935,0.3119340564838776,1.0660674007417188,0.49210798120800436
0.43709462619850303,0.3067419930339548,1.051916640925322,0.4853573019695533
0.4308564661261805,0.3016454217095045,1.0379735744760934,0.47875207208794335
0.42471359515359625,0.2966421093117302,1.0242348915080184,0.47228827823079317
0.41866443383812113,0.29172989757115464,1.0106973422288132,0.46596204181957335
0.41270743361113194,0.28690669980691497,0.9973577355327056,0.4597696138474327
0.4068410759574034,0.28217049775516345,0.9842129376400115,0.4537073699122873
0.4010638716253967,0.27751933855766664,0.9712598707814604,0.4477718054558797
0.3953743598669999,0.27295133190217213,0.9584955119253346,0.44195953119992615
0.3897711077053485,0.26846464730655595,0.9459168915455616,0.43626726877084815
0.3842527092294213,0.2640575115392009,0.9335210924290238,0.43069184650497644
0.37881778491417917,0.25972820616843784,0.921305248520399,0.4252301954264559
0.3734649809650723,0.2554750652342791,0.9092665438029548,0.4198793453904283
0.36819296868580026,0.25129647303602953,0.897402211213794,0.41463642138439677
0.36300044386827124,0.24719086202968965,0.8857095315921011,0.4094986399809812
0.3578861262037546,0.2431567108294107,0.8741858326590297,0.40446330593557867
0.35284875871427335,0.2391925423075415,0.8628284880279466,0.3995278089227225
0.3478871072033343,0.23529692178812078,0.8516349162437769,0.39468962040520383
0.3429999597251302,0.23146845532891958,0.8406025798502843,0.38994629063028785
0.3381861260714057,0.22770578808741881,0.8297289844841647,0.38529544574759417
0.33344443727520473,0.22400760276633458,0.8190116779948913,0.3807347850434565
0.32877374513076496,0.22037261813454934,0.808448249589284,0.3762620782867974
0.32417292172885903,0.21679958761952234,0.7980363289998602,0.37187516318177916
0.319640859006918,0.21328729796745738,0.7877735856760146,0.3675719429226854
0.3151764683133021,0.20983456796770616,0.777657727997177,0.3633503838467029
0.3107786799851199,0.20644024723808163,0.7676865025071025,0.3592085131804458
0.3064464429390244,0.2031032150679134,0.7578576931684924,0.35514441687626014
0.3021787242744401,0.19982237931585778,0.7481691206371961,0.35115623753450587
0.297974508888708,0.19659667535963765,0.7386186415552554,0.3472421724081906
0.2938327991036534,0.19342506509501856,0.7292041478621281,0.3434004714864801
0.2897526143031112,0.19030653598149305,0.7199235661233823,0.33962943565376325
0.28573299058096385,0.1872401001322641,0.710774856876295,0.3359274149210944
0.281772980399267,0.1842247934462442,0.7017560139917005,0.3322928067269741
0.27787165225606164,0.1812596747799211,0.6928650640515472,0.32872405430455964
0.27402809036248826,0.1783438251570465,0.6841000657416014,0.32521964511252455
0.2702413943288383,0.17547634701420722,0.6754591092587856,0.32177810932690465
0.2665106788591949,0.17265636348044888,0.666940315732633,0.31839801839138715
0.26283507345433255,0.16988301768922454,0.6585418366604128,0.3150779836236054
0.25921372212255855,0.16715547212100468,0.6502618533554363,0.3118166548751087
0.25564578309819763,0.16447290797501546,0.6420985764081224,0.3086127192427782
0.25213042856743173,0.16183452456861147,0.6340502451594126,0.3054648998295565
0.24866684440122205,0.1592395387628951,0.6261151271861278,0.3023719545524471
0.2452542298950543,0.15668718441325646,0.6182915177978752,0.29933267499583105
0.24189179751525647,0.15417671184358028,0.6105777395451621,0.29634588530823347
0.23857877265165472,0.15170738734293365,0.6029721417383467,0.29341044114074794
0.23531439337633953,0.14927849268360427,0.5954730999770996,0.2905252286254086
0.2320979102083271,0.1468893246594335,0.5880790156900539,0.2876891633918701
0.22892858588391085,0.14453919464342146,0.5807883156843316,0.28490118962083033
0.22580569513250398,0.14222742816365752,0.5735994517046563,0.2821602791326878
0.22272852445778896,0.1399533644966663,0.5665109000017625,0.27946543051000644
0.21969637192399077,0.1377163562773076,0.5595211609098372,0.2768156682524039
0.21670854694710534,0.13551576912441965,0.552628758432725,0.2742100419625519
0.21376437009091787,0.13335098128143452,0.5458322398386513,0.2716476255620266
0.21086317286765427,0.13122138327123245,0.5391301752632198,0.26912751653580097
0.208004297543117,0.12912637756454148,0.5325211573204636,0.2666488352042266
0.20518709694615977,0.12706537826123177,0.5260038007216985,0.26421072402139667
0.20241093428236728,0.12503781078387588,0.5195767419020088,0.26181234689883154
0.19967518295180464,0.12304311158298786,0.5132386386541192,0.25945288855347254
0.19697922637071358,0.12108072785338264,0.5069881697694827,0.25713155387901404
0.19432245779703416,0.11915011726112545,0.5008240346863726,0.2548475673396402
0.1917042801596362,0.11725074768056487,0.4947449531448209,0.2526001723852811
0.18912410589114925,0.11538209694098334,0.48874966484819793,0.25038863088752794
0.18658135676428664,0.11354365258240062,0.48283692913128684,0.24821222259539813
0.18407546373156014,0.11173491162010918,0.47700552463467694,0.24607024461015925
0.18160586676828838,0.10995538031753682,0.4712542489853162,0.24396201087846942
0.17917201471880495,0.10820457396704708,0.4655819184830805,0.24188685170310953
0.17677336514577655,0.10648201667831336,0.4599873677932076,0.23984411327062344
0.17440938418254437,0.10478724117391902,0.4544694496444468,0.23783315719520384
0.1720795463884053,0.10311978859186055,0.44902703453279,0.23585336007819335
0.1697833346067541,0.10147920829463386,0.4436590104306739,0.23390411308259493
0.1675202398260086,0.09986505768461218,0.4383642825014811,0.231984821522011
0.16528976104324472,0.09827690202543538,0.43314177281926103,0.23009490446345457
0.1630914051304701,0.09671431426914134,0.42799042009351873,0.22823379434350186
0.16092468670346782,0.0951768748887879,0.4229091793989759,0.2264009365972713
0.15878912799314396,0.09366417171632746,0.41789702191018097,0.224595789299743
0.15668425871931624,0.09217579978550106,0.4129529346408627,0.22281782281894652
0.15460961596688222,0.0907113611795417,0.40807592018792516,0.22106651948056819
0.1525647440643072,0.0892704648834759,0.4032649964799746,0.2193413732435451
0.1505491944643767,0.0878527266408311,0.39851919653029233,0.2176418893862329
0.1485625256271566,0.08645776881456513,0.3938375681941406,0.21596758420275
0.14660430290510973,0.08508522025203635,0.3892191739303257,0.2143179847091167
0.14467409843031598,0.08373471615385397,0.3846630905669146,0.21269262835882602
0.1427714910037483,0.0824058979464416,0.38016840907102956,0.21109106276749318
0.14089606598655524,0.08109841315817257,0.3757342343226209,0.20951284544625057
0.1390474151933047,0.07981191529892195,0.3713596848921561,0.20795754354356322
0.13722513678714413,0.07854606374291084,0.3670438928221216,0.2064247335951583
0.1354288351768334,0.07730052361470063,0.3627860034122763,0.20491400128176848
0.13365812091560944,0.0760749656782248,0.35858517500858,0.20342494119440688
0.13191261060184123,0.07486906622873368,0.3544405787957068,0.20195715660689956
0.13019192678143635,0.07368250698754186,0.3503513985931004,0.20051025925541247
0.12849569785196122,0.07251497499947457,0.34631683065446595,0.19908386912472162
0.12682355796843775,0.07136616253290629,0.3423360834706686,0.19767761424098435
0.12517514695078097,0.0702357669823016,0.3384083775759392,0.19629113047077965
0.12355011019284291,0.06912349077316027,0.33453294535734446,0.19492406132619478
0.12194809857302902,0.06802904126928555,0.33070903086745074,0.19357605777574305
0.12036876836645449,0.0669521306822829,0.3269358896401173,0.19224677806090862
0.11881178115860917,0.06592473418000622,0.3232127885093674,0.19093588751811963
0.11727680376049926,0.06497686124395519,0.3195390054312772,0.18964305840596019
0.11576350812523703,0.06404308916395085,0.3159138293088162,0.1883679697374391
0.1142715712660489,0.0631232023130609,0.31233655981959485,0.18711030711714016
0.11280067517567328,0.06221698843596113,0.3088065072464641,0.1858697625830852
0.11135050674712149,0.06132423859473091,0.3053229923109122,0.18464603445314887
0.10992075769577396,0.06044474711558323,0.3018853460091957,0.18343882717586843
0.10851112448278666,0.05957831153650317,0.29849290945118634,0.18224785118550071
0.10712130823978148,0.05872473255578281,0.29514503370183975,0.18107282276118072
0.10575101469479663,0.05788381398142595,0.2918410796252857,0.17991346389004537
0.10439995409947218,0.05705536268142042,0.2885804177314504,0.17876950213418752
0.10306784115744808,0.056239188534839335,0.28536242802519474,0.1776406705013145
0.10175439495395097,0.055435104383775635,0.28218649985791067,0.176526707318987
0.10045933888654832,0.05464292598608056,0.27905203178153304,0.17542735611231944
0.09918240059704717,0.0538624719688956,0.2759584314049277,0.17434236548502974
0.09792331190451734,0.05309356378296021,0.2729051152526085,0.1732714890037274
0.0966818087394172,0.05233602565768347,0.2698915086257474,0.17221448508533527
0.09545763107880283,0.05158968455696161,0.2669170454654348,0.17117111688754305
0.0942505228826,0.05085437013573063,0.26398116821814854,0.1701411522021951
0.09306023203092036,0.05012991469723749,0.2610833277034008,0.1691243633515189
0.0918865102624023,0.04941615315101788,0.2582229829835174,0.16812052708710223
0.09072911311355866,0.048712922971567596,0.25539960123551353,0.1671294244915339
0.08958779985911296,0.048020064157693665,0.2526126576250358,0.16615084088262208
0.0884623334533065,0.04733741919253348,0.24986163518232551,0.16518456572011012
0.08735248047215949,0.046664833004230855,0.24714602468017954,0.16423039251481225
0.08625801105666885,0.04600215292725418,0.24446532451386793,0.16328811874009322
0.08517869885692667,0.04534922866434726,0.24181904058296877,0.1623575457456194
0.08411432097714298,0.0447059122491027,0.23920668617510676,0.16143847867331304
0.08306465792155707,0.04407205800914271,0.2366277818515421,0.16053072637543975
0.08202949354122192,0.04344752252990025,0.2340818553345918,0.15963410133476721
0.08100861498164685,0.042832164618988755,0.2315684413968504,0.1587484195867303
0.0800018126312832,0.04222584527114842,0.22908708175216996,0.15787350064354236
0.07900888007083878,0.04162842763376273,0.22663732494839084,0.15700916742019652
0.07802961402340702,0.04103977697292993,0.22421872626176542,0.15615524616229845
0.07706381430539648,0.04045976064008533,0.22183084759307636,0.1553115663756774
0.0761112837782476,0.03988824803916191,0.2194732573653979,0.15447796075772272
0.0751718283009229,0.039325110594278956,0.21714553042348017,0.1536542651303965
0.07424525668315783,0.038770221717952025,0.2148472479347443,0.1528403183748717
0.07333138063945926,0.03822345677981476,0.21257799729183025,0.15203596236775052
0.07243001474383903,0.03768469307584349,0.21033737201670366,0.15124104191881557
0.07154097638527035,0.03715380979807398,0.20812497166627608,0.15045540471027286
0.07066408572385478,0.036630688004807066,0.20594040173951966,0.14967890123743982
0.06979916564768807,0.036115210591289304,0.20378327358605675,0.14891138475084198
0.06894604173041298,0.03560726226086419,0.2016532043161865,0.1481527111996756
0.06810454218944793,0.03510672949658594,0.19954981671234195,0.14740273917659874
0.0672744978448801,0.03461350053328366,0.1974727391419442,0.14666132986381417
0.06645574207901186,0.03412746533007727,0.1954216054716258,0.14592834698040774
0.06564811079655009,0.03364851554332693,0.19339605498281354,0.14520365673090824
0.06485144238542734,0.033176544500017,0.19139573228864615,0.14448712775503417
0.06406557767824483,0.0327114471715641,0.18942028725218818,0.14377863107859676
0.0632903599143267,0.03225312014804177,0.18746937490595084,0.14307804006552566
0.06252563470237577,0.03180146161281505,0.1855426553726598,0.1423852303709891
0.06177124998372076,0.03135637131758118,0.1836397937872878,0.14170007989557767
0.061027055996145434,0.030917750557804324,0.18176046022030223,0.14102246874052396
0.06029290523829006,0.03048550214854251,0.1799043296021241,0.14035227916393067
0.05956865243461587,0.030059530400658452,0.17807108164877117,0.13968939553798035
0.05885415450092337,0.029639741097408467,0.176260400788675,0.13903370430710005
0.05814927051041558,0.029226041471401232,0.17447197609063902,0.13838509394705795
0.05745386166029703,0.028818340181924806,0.17270550119293104,0.13774345492496629
0.056767791238900356,0.02841654729263149,0.1709606742334946,0.13710867966016652
0.05609092459333137,0.02802057424957699,0.1692371977812379,0.13648066248597593
0.05542312909762456,0.027630333859606393,0.16753477876841827,0.13585929961227244
0.054764274121400856,0.027245740269085827,0.16585312842407274,0.13524448908889544
0.05411423099901905,0.02686670894296639,0.16419196220849996,0.1346361307698439
0.053472872999213564,0.02649315664418339,0.1625509997487593,0.1340341262782507
0.05284007529521018,0.02612500141337848,0.1609299647751865,0.13343837897211247
0.05221571493531235,0.025762162548945755,0.15932858505889946,0.13284879391075838
0.05159967081395041,0.025404560587390712,0.1577465923502812,0.13226527782203745
0.05099182364318623,0.02505211728400053,0.1561837223184217,0.13168773907020861
0.050392055924666085,0.024704755593820515,0.15463971449151348,0.1311160876245136
0.049800251922014455,0.024362399652930466,0.15311431219816818,0.13055023502841884
0.04921629763366171,0.024024974760017193,0.15160726250965983,0.1299900943695074
0.04864008076609878,0.02369240735823719,0.15011831618305682,0.12943558025000698
0.048071490707551894,0.023364625017366747,0.14864722760525662,0.12888660875793867
0.04751041850207076,0.023041556416233455,0.1471937547378781,0.12834309743886893
0.04695675682402342,0.022723131325424972,0.14575765906302474,0.12780496526825447
0.04641039995299158,0.022409280590269753,0.14433870552988437,0.1272721326243624
0.0458712437490596,0.022099936114087615,0.1429366625021704,0.12674452126175337
0.04546843558341062,0.0217950308417037,0.14155130170636898,0.12622205428531488
0.045308233497677215,0.02149449874322279,0.14018239818080547,0.12570465612483078
