jointHR1,jointHR2,jointHR3,force
6.492276060563208,5.362097966017185,7.8490182515446705,6.143163849441095
6.128737735432766,5.066935467035421,7.403313262096717,5.801210519481244
5.784878323464896,4.7876409307830095,6.9818458863894115,5.477737784906166
5.459645033268764,4.5233677636344805,6.5833173057775785,5.171757429404282
5.152041152220829,4.273314417733301,6.206497927763788,4.882333869238437
4.8611230642746595,4.036721996598603,5.85022370379728,4.608581354379873
4.585997426254749,3.812871987954414,5.513392642775523,4.349661318384399
4.325818494214387,3.6010841170228436,5.19496150985061,4.104779869108204
4.079785591884749,3.400714313881553,4.893942700695106,3.8731854127805985
3.847140713666023,3.2111527888258693,4.609401281904892,3.6541664043484294
3.627166255012351,3.0318222099977907,4.340452188711834,3.4470492173832956
3.4191828634421353,2.8621759778488998,4.0862575716480425,3.2511961271991634
3.2225474037648074,2.7016965912927957,3.846024284247478,3.066003401165318
3.036651031455592,2.549894100675995,3.619001504291095,2.8908994905192418
2.860917368432198,2.4085069689002556,3.420361067202268,2.725343318286497
2.6948007757926384,2.296563738727632,3.2797656246831006,2.6041755152082997
2.537784718362364,2.1896605280766366,3.144702490511703,2.498380611411786
2.389380216172606,2.0875734593670177,3.0149553177405215,2.397342347245808
2.2491243782509986,1.9900885469080531,2.8903162124051143,2.300849334115886
2.116579014350858,1.8970012607694922,2.770585403288716,2.208699526820555
2.0250921232663934,1.8081161098639948,2.655570924588745,2.120699811530782
1.9417887869229968,1.7232462433951587,2.5450883109811606,2.036665611920269
1.8617787381038557,1.6422130698624193,2.438960304598246,1.956420512647408
1.785422853886147,1.564845892849724,2.363145529254332,1.8797958994248065
1.7147652474827149,1.49098156285896,2.314638001834991,1.8066306149459699
1.646899219397167,1.420464144481571,2.2672944036821807,1.7367706299708565
1.5817150305670167,1.3531445982329728,2.221081037504094,1.670068728902789
1.5191072413031672,1.2888804764040978,2.1759653553628375,1.6063842092185758
1.4589745431247894,1.2275356323127897,2.1419534575784933,1.5455825941417989
1.401219597167139,1.1689799423649934,2.1106590155741856,1.4875353579760722
1.3457488789054752,1.1130890403616354,2.079889177313458,1.4321196635407774
1.296319576871378,1.066795850055927,2.049632840884723,1.3792181111762845
1.270120638441441,1.0244601028080758,2.0198792391532807,1.3287184988091758
1.2445944408648792,0.9837980182934185,1.9906179259071932,1.2805135925903937
1.2197166915082494,0.9447438732683602,1.9618387626782914,1.234500907640683
1.1954642132046454,0.9072345176918455,1.933531906203381,1.1905824984582114
1.1718148875100596,0.8712637379123042,1.905687796492586,1.148664758562833
1.1487476009426891,0.837040787716499,1.8782971454734947,1.1086582289701998
1.1262421940469869,0.8041557787961774,1.8513509261814192,1.0704774151068506
1.1054634113888475,0.7725564323922328,1.824840362467658,1.0340406117945
1.089301646037203,0.7421925121298513,1.7987569191991089,0.9992697359481515
1.0734069793644239,0.713015744228855,1.773092292924002,0.9660901666482785
1.0577739608573697,0.6849797408313721,1.7478384029798315,0.9344305922622906
1.0423972965891346,0.6580399263250262,1.7229873830208322,0.904222864304802
1.0272718429474557,0.6321534665446004,1.6985315729435355,0.8754018577398845
1.012392600664724,0.6072792007397091,1.6744635111900632,0.8479053374415582
0.9977547091340683,0.5874409079269294,1.6507759274098879,0.82167383054127
0.9833534409967941,0.5733131336240576,1.627461735461798,0.7966505044030489
0.9691841969872355,0.5595872063786556,1.604514026738766,0.7727810499784463
0.9552425010218091,0.5462496369813628,1.5819260637993224,0.7500135703042877
0.9415239955197598,0.5332874499550364,1.5596912742898976,0.7282984739166916
0.9280244369437344,0.5206881624124917,1.5378032451434085,0.7075883729647894
0.9147396915489527,0.5084397638212237,1.5162557170401367,0.6878379858171184
0.9016657313303318,0.49653069663540356,1.495042579117674,0.6690040439627707
0.8887986301574734,0.4849498377571659,1.4741578639174044,0.6510452030180995
0.8761345600879591,0.4736864807909085,1.4535957425556438,0.6377257968595796
0.8636697878498985,0.46273031905590695,1.4333505201081809,0.6260903973821402
0.8514006714851474,0.4520714293241073,1.4134166311975476,0.6147030459939997
0.8393236571450635,0.44170025625139936,1.393788635772911,0.6035564483039826
0.8274352760310912,0.4327303248551967,1.3744612150729913,0.5926436073847868
0.8157321414728785,0.4245098956616642,1.355429167762927,0.5819578092629576
0.804210946136998,0.41646774132671927,1.3366874062364662,0.5714926091636325
0.7928684593597131,0.40859917655530686,1.3182309530753222,0.5612418184700942
0.7817015245975777,0.40089966687605616,1.3000549376579493,0.5511994923602781
0.7707070569899694,0.39336482298385744,1.2821545929103935,0.541359918084392
0.7598820410279759,0.38599039531419654,1.2645252521922692,0.5317176038497268
0.7492235283243377,0.378772268839326,1.2471623463112484,0.5235401236099855
0.7387286354794316,0.3717064580768006,1.2300614006598192,0.5159472528387747
0.7283945420385326,0.36478910230130457,1.2132180324683646,0.5084736188390827
0.7182184885358505,0.3580164609511014,1.1966279481689486,0.5011171088018235
0.7081977746210599,0.3513849092208099,1.1802869408644623,0.4938756577847408
0.6983297572642753,0.3448909338325772,1.1641908878980693,0.48674724715777845
0.6886118490356229,0.3385311289780558,1.1483357485181553,0.47972990311601754
0.6790415164557684,0.3323021924239359,1.132717561634217,0.47282169525681683
0.6696162784139456,0.3262009217740782,1.1173324436593837,0.4660207352179599
0.660333704650205,0.32022421088162434,1.102176586435455,0.45932517537378575
0.6511914142987815,0.3143690464047161,1.0872462552365825,0.45273320758643953
0.6421870744896274,0.3086325044997619,1.0725377868478971,0.44624306200951575
0.6333183990053212,0.3030117476464309,1.0580475877155773,0.439853005941527
0.624583146990697,0.29750402159881584,1.0437721321650448,0.4335613427267486
0.6159791217126839,0.2921066524574496,1.0297079606841284,0.42736641070112635
0.6075041693679659,0.2868170438570846,1.0158516782682012,0.4212665821810523
0.5991561779362016,0.2816326742653674,1.0021999528244536,0.415260262492921
0.5909330760766567,0.2765510943877505,0.9887495136326041,0.40934588904150165
0.5828328320662111,0.27156992467419017,0.9754971498594884,0.403521930415245
0.5748534527768072,0.2666868529233628,0.9624397091250868,0.39778688552675406
0.5669929826905079,0.26189963198032173,0.9495740961176963,0.3921392827867349
0.5592495029504188,0.2572060775236935,0.9368972712560387,0.386577679309831
0.5516211304458256,0.25260406593868034,0.9244062493962357,0.38110066015082444
0.5441060169299784,0.2480915322722903,0.9120980985816607,0.3757068375697691
0.5367023481690301,0.24366646826738303,0.899969938833797,0.3703948503246926
0.5294083431207205,0.2393269204722548,0.8880189409823112,0.3651633629905749
0.5222222531414602,0.23507098842262875,0.8762423255326496,0.36001106530337335
0.5151423612205414,0.2308968228930638,0.8646373615695382,0.3549366715279364
0.5081669812402642,0.22680262421490338,0.8532013656948588,0.3499389198486943
0.5012944572608307,0.22278664065802511,0.8419317009984464,0.3450165717820836
0.4945231628289124,0.21884716687376526,0.8308257760604102,0.3401684116097092
0.4878515003088554,0.21498254239649817,0.8198810439836818,0.3353932458312993
0.4812779002355374,0.21119115020147228,0.8090950014555112,0.3332910458650328
0.47480082068793933,0.2074714153165894,0.7984651878367426,0.33139836272593753
0.46841874668254213,0.2038218034859306,0.7879891842777256,0.329604731898004
0.46213018958570234,0.2002408198829142,0.7776646128597793,0.33027741396807964
0.4559336865442029,0.19672700787106168,0.7674891357611933,0.3312986227329612
0.4498277999332135,0.19327894781044308,0.7574604544467771,0.3322501261110892
0.44381111682093444,0.18989525590794665,0.7475763088800369,0.3331353450862431
0.43788224844923257,0.18657458310959674,0.7378344767570926,0.3339575434200893
0.4320398297296104,0.18331561403322583,0.7282327727614815,0.3347198347061995
0.4262825187538847,0.18011706593987287,0.718769047839058,0.3354251891108003
0.42060899631897697,0.17697768774235123,0.7094411884922238,0.33607643981409707
0.41501796546525205,0.17389625904949513,0.700247116092743,0.3366762891654166
0.40950815102786287,0.1709679254945783,0.6911847862124654,0.3372273145648137
0.40407829920059035,0.1681973939969552,0.6822521879712868,0.3377319740832456
0.39872717711168737,0.1654740996273637,0.6734473434017147,0.33819261183286775
0.39345357241126433,0.16279714510407606,0.6647683068294354,0.33861146309850765
0.3882562928697697,0.16016565504756297,0.656213164269311,0.33899065924088045
0.3831341659871462,0.15757877522207508,0.647780032836254,0.3393322323816408
0.37808603861225754,0.15503567181134792,0.6394670601704613,0.33963811987992854
0.3731107765722036,0.15253553072669834,0.6312724238764962,0.33991016860962664
0.36820726431115836,0.1500775569458801,0.623194330975757,0.340150139046162
0.3633744045383804,0.1476609738811554,0.6152310173718607,0.340359709171268
0.3586111178850664,0.14528502277510613,0.6073807473285151,0.3405404782037724
0.35391634256972526,0.1429489621228055,0.5996418129594607,0.34069397016411196
0.3492890340717766,0.1406520671190199,0.5920125337300881,0.3408216372799383
0.34472816481307866,0.13839362912921016,0.5844912559703297,0.34092486323984506
0.3402327238471132,0.13617295518312922,0.5770763523985045,0.3410049663019531
0.3358017165555638,0.13398936748990997,0.5697662216557142,0.3410632022637742
0.33143416435203343,0.13184220297357618,0.5625592878505024,0.34110076729950634
0.32712910439266396,0.12973081282796572,0.555454000113426,0.34111880067062805
0.32288558929342603,0.12765456209011272,0.5484488321612582,0.3411183873154131
0.31870268685386016,0.12561282923119255,0.5415422818705069,0.3411005603227293
0.314579479787058,0.12360500576415434,0.5347328708599801,0.34106630329524956
0.31051506545568497,0.12163049586724473,0.5280191440821385,0.3410165526069844
0.3065085556138497,0.11968871602264197,0.5213996694229484,0.34095219955981615
0.30255907615463823,0.11777909466947178,0.5148730373100217,0.3408740924435194
0.2986657668631338,0.11590107187051335,0.5084378603287754,0.3407830385035463
0.29482778117475916,0.11405409899193508,0.5020927728464075,0.3406798058206708
0.2910442859387714,0.11223763839544054,0.49583643064344907,0.3405651251064049
0.28731446118676335,0.11045116314222914,0.48966751055269775,0.3404396914179221
0.28363749990601644,0.10869415670821692,0.4835847101053201,0.3403041657960655
0.28001260781756415,0.10696611270997691,0.4775867471839341,0.34015917682985486
0.2764390031588334,0.10526653464090618,0.4716723596824859,0.3400053221507554
0.27291591647072583,0.10359493561713018,0.4658403051727329,0.33984316985983143
0.26944259038901935,0.10195083813269534,0.460089360577169,0.33967325989076713
0.26601827943996514,0.1003337738236233,0.45441832184822184,0.3394961053116029
0.2626422498399657,0.09874328324040837,0.4488260036535592,0.3393121935679123
0.25931377929922367,0.09717891562858105,0.4433112390673557,0.33912198767002677
0.25603215682924724,0.09564022871695899,0.43787287926736185,0.3389259273267895
0.252796682554122,0.0941267885132493,0.4325097932376418,0.33872443002822816
0.24960666752543542,0.09263816910665401,0.4272208674768334,0.33851789207940897
0.2464614335407681,0.09117395247718063,0.4220050057118021,0.33830668958765087
0.24336031296565658,0.0897337283113473,0.41686112861655666,0.3380911794051755
0.2403026485589394,0.08831709382400466,0.4117881735362947,0.3378717000291783
0.2372877933014006,0.08692365358599996,0.40678509421648346,0.33764857246121494
0.23431511022762808,0.08555301935743553,0.40185086053681784,0.3374221010277193
0.23138397226101065,0.08420480992627122,0.3969844582499835,0.3371925741633842
0.22849376205179145,0.08287865095204028,0.3921848887250958,0.33696026515906086
0.22564387181811058,0.08157417481446527,0.3874511686957043,0.3367254328757576
0.22283370318995777,0.08029102046676118,0.3827823300122779,0.33648832242625626
0.22006266705597588,0.07902883329342325,0.37817741939905747,0.336249165825785
0.21733018341303956,0.0777872649723228,0.37363549821519126,0.3360081826131315
0.21463568121854987,0.07656597334092241,0.3691556422200446,0.3357655804435191
0.21197859824538157,0.07536462226643958,0.3647369413426156,0.3355215556545038
0.20935838093942344,0.07418288151980801,0.36037849945495193,0.3352762938061008
0.20677448427965095,0.07302042665326802,0.3560794341494884,0.33502997019629055
0.20422637164067808,0.07187693888145075,0.3518388765202325,0.3347827503530071
0.2017135146577339,0.07075210496581075,0.34765597094770473,0.3345347905036601
0.199235393094005,0.0696456171022779,0.3435298748875657,0.3342862380231977
0.19679149471030322,0.06855717281199958,0.33945975866284916,0.33403723186166956
0.1943813151369977,0.06748647483505499,0.33544480525973364,0.3337879029522085
0.19200435774817137,0.0664332310270267,0.331484210126779,0.33353837460030955
0.18966013353795141,0.06539715425831771,0.32757718097755273,0.3332887628552451
0.1873481609989684,0.06437796231611914,0.323722937596594,0.3330391768644161
0.18506796600290187,0.06337537780891356,0.3199207116486309,0.33278971921140543
0.18281908168306726,0.0623891280734401,0.3161697464909998,0.33254048623846766
0.18060104831900514,0.06141894508401102,0.31246929698921333,0.33229156835415097
0.17841341322303111,0.060464565364113154,0.3088186293355857,0.33204305032672243
0.17625573062870503,0.05952572990019511,0.30521702087089,0.331795011564031
0.17412756158118609,0.05860218405757556,0.30166375990897665,0.3315475263804252
0.1720284738294332,0.05769367749839327,0.2981581455642872,0.3313006642513019
0.16995804172021467,0.05679996410152499,0.29469948758222864,0.331054490055845
0.16791584609389315,0.05592080188440818,0.2912871061723421,0.330809064308489
0.16590147418195184,0.055055952926702734,0.2879203318442136,0.33056444337961366
0.1639145195062262,0.054205183295726767,0.2845985052460869,0.33032067970595347
0.1619545817798126,0.053368262973615965,0.28132097700611314,0.3300778219911936
0.1600212668096177,0.052544965786134656,0.27808710757620725,0.32983591539718493
0.15811418640052177,0.051735069333102124,0.2748962670784496,0.32959500172621436
0.1562329582611222,0.05093835492037169,0.2717478351539899,0.3293551195947244
0.15437720591103132,0.05015460749331613,0.2686412008144152,0.3291163045988762
0.15254655858969696,0.049383615571772066,0.2655757622955337,0.32887858947232107
0.1507406511667191,0.048625171186396865,0.2625509269135249,0.32864200423653867
0.1489591240536352,0.04787906981640211,0.2595661109234244,0.3284065763440731
0.14720162311714707,0.04714511032860569,0.2566207393798996,0.32817233081499364
0.14546779959376482,0.04642309491778551,0.25371424600027037,0.32793929036688785
0.1437573100058377,0.04571282904827445,0.25084607302974415,0.32770747553867774
0.14206981607895558,0.04501412139677685,0.24801567110881373,0.3274769048085444
0.14040498466068607,0.044326783796360014,0.24522249914280136,0.32724759470622644
0.1387624876406327,0.043650631181596844,0.24246602417348706,0.3270195599199507
0.13714200187178494,0.04298548153481674,0.23974572125280558,0.32679281339823785
0.13554320909314155,0.04233115583344682,0.23706107331856452,0.32656736644682016
0.1339657958535797,0.04168747799839745,0.23441157107215638,0.3263432288208915
0.1324094534369547,0.041054274843481675,0.23179671285821968,0.32612040881290694
0.13087387778840331,0.040431376025824695,0.22921600454623214,0.3258989133361302
0.12935876944183272,0.039818613997247065,0.22666895941399168,0.3256787480041312
0.1278638334485735,0.03921582395659484,0.22415509803294897,0.3254599172064132
0.12638877930717862,0.038622843802986195,0.22167394815537977,0.3252424241803511
0.12493332089434517,0.0380395140899602,0.2192250446033417,0.3250262710796089
0.12349717639694313,0.037465677980494605,0.21680792915940494,0.3248114590391994
0.12208006824513074,0.03690118120288444,0.21442215045911706,0.32459798823734054
0.12068172304653768,0.03634587200744255,0.21206726388517683,0.3243858579542561
0.11930187152149935,0.035799601124018254,0.20974283146328299,0.3241750666280625
0.11794024843932333,0.035262221720305464,0.20744842175964262,0.32396561190787543
0.11659659255557103,0.03473358936092441,0.2051836097800943,0.3237574907042666
0.11527064655033664,0.03421356196725511,0.20294797687083643,0.3235506992371936
0.11396215696751016,0.03370199977801036,0.20074111062071953,0.3233452330815185
0.11267087415500165,0.03319876531052879,0.19856260476508947,0.3231410872102274
0.11139655220591821,0.032703723322768385,0.19641205909114445,0.3229382560354632
0.11013894890067155,0.03221674077598857,0.19428907934479356,0.3227367334474641
0.10889782565000372,0.03173768679810507,0.1921932771389776,0.3225365128515161
0.10767294743891753,0.03126643264770124,0.19012426986343822,0.3223375872030042
0.10646408277149055,0.030802851678680465,0.188081680595916,0.3221399490406569
0.10527100361656694,0.030346819305547612,0.18606513801473756,0.321943590518066
0.1040934853543028,0.029898212969306615,0.18407427631278472,0.3217485034335631
0.10293130672356038,0.029456912103957955,0.1821087351128179,0.32155467925853143
0.10178424977013073,0.029022798103585545,0.1801681593841289,0.3213621091642278
0.10065209979577394,0.028595754290019926,0.1782521993605053,0.3211707840471799
0.09953464530806333,0.028175665881067236,0.17636051045948475,0.32098069455323364
0.09843167797101898,0.027762419959289186,0.17449275320287505,0.3207918311003102
0.09734299255652201,0.027355905441325046,0.17264859313852643,0.3206041838999345
0.09626838689648953,0.026956013047745198,0.17082770076332432,0.3204177429775954
0.09520766183580714,0.026562635273421398,0.16902975144740084,0.32023249819199173
0.094160621185998,0.02617566635841162,0.1672544253595203,0.3200484392532198
0.09312707167962264,0.025795002259338506,0.1655014073936476,0.31986555573994946
0.09210682292539385,0.02542054062126098,0.1637703870966598,0.31968383711564197
0.09109968736399843,0.025052180750023356,0.16206105859718845,0.3195032727438524
0.09010548022461118,0.02468982358507621,0.16037312053558406,0.31932385190266055
0.08912401948209259,0.024333371672760284,0.15870627599496356,0.3191455637982803
0.0881551258148569,0.02398272914003763,0.15706023243335143,0.3189683975778722
0.08719862256340205,0.023637801668672798,0.15543470161686646,0.318792342341616
0.08625433568948909,0.02329849646984461,0.15382939955396635,0.3186173871540635
0.08532209373596072,0.022964722259190107,0.1522440464307102,0.31844352105481977
0.08440172778719163,0.02263638923226241,0.1506783665470377,0.318270733068576
0.08349307143015522,0.02231340904040391,0.14913208825404056,0.31809901221453196
0.08259596071610109,0.021995694767023122,0.14760494389221157,0.3179283475152376
0.0817102341228334,0.021683160904265475,0.14609666973066493,0.3177587280048787
0.0808357325175772,0.02137572333007487,0.14460700590729214,0.3175901427370389
0.07997229912042653,0.021073299285640057,0.14313569636986423,0.31742258079196384
0.07911977946836385,0.020775807353210274,0.14168248881804257,0.317256031283348
0.07827802137984191,0.020483167434284244,0.14024713464629635,0.3170904833646738
0.07744687491991847,0.020195300728160448,0.13882938888771323,0.3169259262351235
0.07662619236593599,0.019912129710838444,0.13742901015867837,0.3167623491450835
0.07581582817373739,0.019633578114275685,0.1360457606044181,0.31659974140126634
0.07558769330138582,0.019464587673880596,0.13467940584539373,0.3164380923714648
0.0753695863246695,0.019429038338207638,0.13332971492452472,0.31627739148896383
0.07515232953361062,0.01939381466797352,0.1319964602552366,0.3161176282566178
0.0749359170086748,0.01935891581399729,0.13067941757031432,0.31595879225062395
0.07472034308675668,0.019324340751335378,0.12937836587155171,0.31580087312399496
0.07450560234783304,0.01929008828980827,0.12809308738018488,0.315643860609754
0.0742916896022141,0.019256157084050485,0.12682336748809275,0.3154877445238681
