jointMR1,jointMR2,jointMR3,force
6.236336547232889,5.759853896036038,7.78448657704349,6.150612083702565
5.893706271864027,5.444153708987185,7.3492621183185864,5.808374831838108
5.569272901962218,5.1454298376062075,6.9372638963265665,5.484624142558744
5.262080666269095,4.862776177598332,6.547269996818496,5.1783717204193715
4.971223799937223,4.595334854065155,6.178122471729923,4.888681905823912
4.695843931797649,4.342293657075458,5.828723996483776,4.614668875651272
4.435127608068138,4.102883613534102,5.498034701862656,4.355493992679738
4.188303945378338,3.876376688106101,5.185069171335854,4.110363295902336
3.954642406360021,3.6620836063378124,4.888893595202386,3.8785251242459355
3.7334506914029837,3.459351793481632,4.608623073362313,3.6592678666047096
3.524072740511406,3.2691643552113154,4.3434190589560355,3.4519178314752264
3.3258868395120182,3.0907118816765076,4.0953076327219335,3.2558372298371987
3.1383038251656066,2.9219069915177833,3.861614527891451,3.0704222652616013
2.96076538401782,2.762233159028119,3.640491326738987,2.8951013255476963
2.792742440094863,2.61120139737707,3.431274122848922,2.755856669824132
2.6337336268051645,2.4683487930491568,3.2333338370779883,2.646606257181186
2.483263838650331,2.333237118211631,3.0543685823428475,2.542262117229006
2.3408828585782215,2.2054515168694158,2.9359024536127563,2.4426045904624605
2.206164057028538,2.1032540852233645,2.8414242049296243,2.347423840647553
2.0787031589275506,2.0059390882333092,2.749815724454151,2.256519415609465
1.9581170750839902,1.9130508857346462,2.6609906158687457,2.1696998276599953
1.844042794623397,1.824390374342498,2.574865077900066,2.086782152786109
1.736136335273768,1.7397673691206348,2.491357826382562,2.0075916477605436
1.6399554428777094,1.6590002046370498,2.410390018665765,1.9319613843729748
1.5894040550981166,1.5819153538584545,2.331885180294624,1.8597319000161006
1.5403831084148945,1.508347064086082,2.2557691338943786,1.7907508638952276
1.4928464807220188,1.4381370091708146,2.181969930193492,1.7248727581626841
1.44674943604165,1.3711339572797538,2.131463219046644,1.6619585733096036
1.4020485829108835,1.3071934535188756,2.1015691269576307,1.6018755171775148
1.3587018340181833,1.263905876041724,2.072164161067939,1.5444967369806597
1.3166683670519075,1.2252807857736487,2.0432376942037904,1.489701053757208
1.2759085867244733,1.1878221922205223,2.014779440870322,1.437372708693588
1.2363840879368035,1.151495021035071,1.9867794424739877,1.3874011207909638
1.198057620048765,1.1162652509563515,1.9592280532734843,1.3396806553666833
1.160893052222345,1.0820998821863412,1.932115927021714,1.2941104029061745
1.1261438010645577,1.0489669057175202,1.9054340042632818,1.2505939678024522
1.0947475526947779,1.0168352735827766,1.8791735002538417,1.2090392665410945
1.064298496694608,0.9856748699998193,1.8533258934693808,1.1693583349083199
1.0347680303101257,0.9554564833831335,1.8278829146751805,1.131467143818689
1.0061284116020848,0.9261517791973214,1.802836536525765,1.0952854233769984
0.9814731094438587,0.8977332736264761,1.7781789636686494,1.0607364948061793
0.962110862978155,0.8701743080349896,1.7539026233261015,1.0277471098894557
0.9432478585018798,0.843449024195951,1.7300001563304814,0.9962472975907898
0.9248657973436851,0.8175323402640055,1.7064644085899856,0.9661702175326196
0.9113360748078563,0.7923999274702495,1.683288422962831,0.9374520200242905
0.8986182566438776,0.7680281875174119,1.6604654315190526,0.9100317123482659
0.8861013527783954,0.7443942306542309,1.63798884817017,0.8838510310243126
0.8737813484294343,0.7214758544085726,1.6158522616480069,0.8588543197843764
0.8616543456371895,0.6992515229594568,1.5940494288149123,0.8349884130027994
0.8497165584974383,0.6777003471287536,1.5725742682885586,0.8122025243379636
0.8379643086251549,0.6568020649738983,1.5514208543653645,0.7904481403523499
0.8263940208365401,0.6365370229635303,1.530583411227413,0.7696789188884163
0.8150022190383132,0.616886157718516,1.5100563074185258,0.7498505919876624
0.8037855223136752,0.5978309783013366,1.4898340505758911,0.7309208731497441
0.7927406411949136,0.5793535490373447,1.4699112824043552,0.7128493687376003
0.7818643741131384,0.5614364728518828,1.4502827738811481,0.6955974933432194
0.7711536040161266,0.5440628751077471,1.4309434206794491,0.6791283889369639
0.7606052951457308,0.5272163879279449,1.4118882387998006,0.6634068476312988
0.7502164899667435,0.5108811349891479,1.3931123603989448,0.6483992378973202
0.7399843062395322,0.5000501427101969,1.3746110298061942,0.6340734340797214
0.7299059342291601,0.4896219654690825,1.356379599717968,0.6203987490627174
0.7199786340440824,0.4794466000281223,1.338413527561592,0.6073458699460701
0.7101997330978709,0.46951678494610866,1.3207083720199453,0.594886796596622
0.7005666236877536,0.4598255027027645,1.3032597897089417,0.5829947829467973
0.6910767606840811,0.45036597049404675,1.2860635320002756,0.5716442809172501
0.6817276593251376,0.4438971926011911,1.2691154419822277,0.5608108868463502
0.6725168931120005,0.4377581777126818,1.2524114515517177,0.5504712903144282
0.6634420917984292,0.43171172632218346,1.2359475786311251,0.5406032252557273
0.6545009394710193,0.42575619783541774,1.2197199245037469,0.5311854232557814
0.6456911727151131,0.41988999151557693,1.203724671262062,0.52219756893652
0.63701057886218,0.4141115450631814,1.1879580793632876,0.5136202573357715
0.6284569943146081,0.40841933326071034,1.1724164852869834,0.505434953192003
0.6200283029440596,0.40281186667875746,1.157096299289729,0.4976239520491245
0.6117224345597356,0.3972876904406184,1.1419940032521712,0.4901703430999908
0.6035373634430846,0.3918453830423815,1.1271061486139533,0.4830579736908789
0.5954711069456778,0.3864835552257483,1.1124293543922898,0.47627141541268714
0.5875217241471283,0.3812008489009493,1.097960305280157,0.4697959317079233
0.5796873145701018,0.375995936117256,1.0836957498202777,0.4636174469257231
0.5719660169496177,0.3708675180787213,1.0696324986512722,0.4577225167601695
0.56435600805398,0.3658143242029076,1.0557674228225333,0.4520983000100716
0.5568555015548147,0.3608351112204642,1.0420974521745636,0.4467325316011375
0.549462746943826,0.3559286623135407,1.0286195737816712,0.44161349681410444
0.542176028493995,0.35109378629111576,1.015330830454079,0.4367300066649223
0.5349936642630739,0.34632931679942813,1.0022283192966635,0.4320713743854893
0.5279140051373283,0.34163411156578294,0.9893091903216636,0.4276273929557462
0.5209354339135901,0.3370070516740963,0.976570645112846,0.4233883136401343
0.5140563644177848,0.3324470408706349,0.9640099355387398,0.41934482548351654
0.5072752406581835,0.3279530048984707,0.9516243625126687,0.41548803572368087
0.500590536011727,0.32352389085925815,0.9394112747974266,0.41180945107944944
0.4940007524418476,0.3191586666010121,0.9273680678525569,0.4083009598752579
0.4875044197463005,0.31485632013062625,0.9154921827222843,0.40495481496481367
0.4811000948335852,0.3106158590499407,0.9037811049622624,0.4017636174181165
0.4747863610266164,0.3064363100142332,0.8922323636033789,0.3987203009377191
0.4685618273923677,0.3023167182120482,0.8808435301509602,0.39581811697163377
0.46242512809627734,0.2982561468653605,0.8696122176177864,0.3930506204917448
0.456374921780267,0.29425367674909575,0.858536079589423,0.39041165640798015
0.4504098909632822,0.2903084057290978,0.8476128093204338,0.3878953465898278
0.44452874146331894,0.28641944831766564,0.836840138860129,0.3854960774680473
0.43873020183995104,0.28258593524583886,0.8262158382065433,0.3832084881906455
0.4330130228564264,0.2788070130516478,0.8157377144874425,0.3831252411265952
0.4273759769604429,0.2750818436835788,0.8054036111671654,0.3842416035997097
0.42181785778276243,0.27140960411855297,0.7952114072782215,0.38526996695095916
0.4163374796528622,0.26778948599374597,0.7851590166765726,0.3862147651753848
0.41093367713086343,0.2642206952516094,0.7752443873196064,0.387080226385796
0.40560530455501403,0.2607024517974932,0.7654655005658468,0.3878703821404519
0.4003512356040406,0.2572339891692902,0.7558203704954971,0.38858907635168294
0.39517036287371615,0.2538145542185618,0.746307043250954,0.3892399737942176
0.39006159746702457,0.25044340680262256,0.7369235963964769,0.3898265682311469
0.3850238685973324,0.24711981948709374,0.7276681382962205,0.39035219017465617
0.3800561232040089,0.24384307725845863,0.718538807509908,0.3908200142978844
0.37515732557996084,0.24061247724617577,0.7095337722054205,0.3912330665135402
0.37032645701057715,0.2374273284539242,0.700651229587637,0.39159423073420896
0.36556251542360174,0.23428695149958753,0.6918894053428939,0.3919062553286089
0.36086451504947714,0.23119067836358684,0.6832465530984342,0.39217175928742176
0.35623148609172345,0.22813785214520857,0.6747209538962866,0.3923932381117168
0.35166247440693915,0.22512782682657603,0.6663109156810059,0.39257306943639114
0.3471565411940292,0.22215996704394456,0.6580147728007564,0.39271351840051294
0.34271276269228634,0.21923364786600116,0.649830885521232,0.3928167427759034
0.3383302298879688,0.2163482545788811,0.6417576395519349,0.3928847978647978
0.33400804822903424,0.21350318247761466,0.6337934455843615,0.3929196411769378
0.32974533734770833,0.21069783666373734,0.6259367388416432,0.3929231368959808
0.32554123079057823,0.2079316318488116,0.6181859786392543,0.3928970601446764
0.3213948757559202,0.20520399216361565,0.6105396479563674,0.39284310105782505
0.3173054328379799,0.20251435097276924,0.6029962530174833,0.392762868671651
0.31327207577794214,0.1998621506945786,0.5955543228839864,0.3926578946378064
0.30929399122133433,0.19724684262589084,0.5882124090552658,0.39252963676988695
0.30537037848162374,0.19466788677175842,0.580969085079085,0.3923794824299619
0.3015004493097781,0.1921247516797269,0.5738229461708759,0.39220875176229886
0.2976834276695701,0.18961691427856422,0.5667726088416696,0.39201870078113654
0.2939185495184169,0.1871438597212596,0.5598167105343632,0.39181052431905694
0.2902050625935539,0.184705081232131,0.5529539092680582,0.39158535884220835
0.2865422262033546,0.18230007995788203,0.5461828832902036,0.3913442851383564
0.28292931102361335,0.17992836482246397,0.5395023307362987,0.3910883308834714
0.2793655988986175,0.177589452385598,0.5329109692969085,0.3908184730923012
0.2758503826468448,0.17528286670482504,0.5264075358917668,0.39053564045814104
0.27238296587112637,0.173008139200954,0.519990786350744,0.39024071558677076
0.2689626627731261,0.1707648085267854,0.5136594951014775,0.38993453712931714
0.2655887979719903,0.16855242043899396,0.5074124548634473,0.3896179018185728
0.26226070632703175,0.16637052767305902,0.5012484763483247,0.38929156641311635
0.2589777327643146,0.16421868982113527,0.4951663879663879,0.3889562495533675
0.2557392321070155,0.1620964732127629,0.48916503553884216,0.38861263353353803
0.25254456890944,0.16000345079831887,0.4832432820158705,0.3882613659932569
0.24939311729457891,0.1579392020351191,0.47740000720024756,0.38790306153247633
0.24628426079509408,0.15590331277607997,0.4716341074763608,0.38753830325311156
0.2432173921976285,0.15389537516085747,0.4659444955444989,0.38716764423070416
0.24019191339033952,0.15191498750937907,0.4603301001602442,0.3867916089192548
0.23720723521355783,0.14996175421769634,0.4547898658788503,0.38641069449223486
0.2342627773134799,0.14803528565607973,0.4493227528044541,0.38602537212264054
0.2313579679988047,0.14613519806928613,0.44392773634400884,0.38563608820483664
0.22849224410022984,0.14426111347893225,0.43860380696580425,0.38524326552080856
0.22566505083272348,0.14241265958790975,0.4333499699624557,0.3848473043533178
0.2228758416604974,0.14058946968677524,0.42816524521826316,0.38444858354836164
0.22012407816460067,0.13879118256206344,0.4230486669807989,0.3840474615292071
0.21740922991306616,0.137017442406459,0.4179992836366586,0.3836442772641888
0.21473077433353813,0.13526789873077597,0.4130161574912341,0.38323935119034735
0.21208819658831415,0.1335422062776949,0.4080983645524423,0.38283298609489835
0.20948098945173746,0.13184002493720012,0.4032449943182872,0.3824254679564373
0.2069086531898792,0.13016101966367752,0.39845514956819006,0.38201706674768177
0.20437069544244887,0.12850486039461942,0.3937279461579739,0.38160803720150194
0.20186663110687772,0.12687122197089792,0.38906251281844284,0.38119861954187895
0.19939598222451974,0.12525978405855828,0.38445799095744504,0.3807890401813808
0.1969582778689162,0.12367023107209771,0.37991353446537013,0.38037951238666656
0.19455305403607462,0.12210225209918399,0.3754283095239779,0.3799702369134559
0.19217985353671105,0.12055554082678052,0.3710014944185023,0.37956140261234794
0.18983822589041016,0.1190297954686391,0.3666322793529462,0.37915318700680034
0.18752772722165453,0.11752471869412648,0.3623198662685079,0.37874575684452993
0.1852479201576839,0.1160400175583505,0.3580634686650601,0.37833926862353273
0.1829983737281357,0.11457540343355169,0.3538623114256303,0.3779338690938715
0.18077866326643116,0.11313059194173405,0.34971563064380873,0.37752969573632356
0.17858837031286362,0.11170530288849725,0.345622673454014,0.3771268772189392
0.1764270825193523,0.11029926019804812,0.3415826978645946,0.37672553383250607
0.17429439355582482,0.10891219184935988,0.3375949725936549,0.37632577790587585
0.17218990301819076,0.1075438298134527,0.3336587769075918,0.37592771420206383
0.1701132163378735,0.10619390999176861,0.32977340046227255,0.37553144029599084
0.16806394469286548,0.10486217215561819,0.3259381431467947,0.3751370469347016
0.16604170492027442,0.10354835988667091,0.32215231492979335,0.3747446183808515
0.16404611943032998,0.10225222051846863,0.3184152357082257,0.3743542327402194
0.16207681612181882,0.1009735050789384,0.3147262351586033,0.3739659622739747
0.16013342829891958,0.09971196823388198,0.31108465259061346,0.3735798736963831
0.15821559458940865,0.09846736823142185,0.30748983680308606,0.37319602845862176
0.15632295886420838,0.09723946684738147,0.3039411459422645,0.3728144830193242
0.15445517015825178,0.09602802933158225,0.3004379473623362,0.37243528910246637
0.1526118825926364,0.09483282435503601,0.29697961748817536,0.3720584939431608
0.15079275529804204,0.09365362395801383,0.29356554168026294,0.3716841405219198
0.14899745233938852,0.092490203498975,0.2901951141017478,0.37131226778789983
0.1472256426417078,0.09134234160433671,0.2868677375875903,0.37094291087163633
0.1454769999172078,0.09020982011906872,0.2835828235157791,0.37057610128774676
0.1437512025935062,0.08909242405809534,0.28033979168055767,0.37021186712805676
0.14204793374300978,0.08798994155848852,0.27713807016764114,0.3698502332455864
0.1403668810134193,0.08690216383243768,0.27397709523138003,0.3694912214298163
0.13870773655933907,0.08582888512097994,0.27085631117383824,0.3691348505736274
0.1370701969749695,0.08476990264847648,0.26777517022575403,0.36878113683229674
0.1354539632278639,0.0837250165778197,0.2647331324293485,0.36843009377491476
0.1338587405937289,0.08269402996635958,0.2617296655229475,0.3680817325285649
0.13228423859225089,0.0816767487225322,0.2587642448273897,0.3677360619156018
0.13073017092392944,0.0806729815631794,0.2558363531341892,0.3673930885843434
0.1291962554078981,0.0796825399715482,0.2529454805954201,0.3670528171334744
0.1276822139207185,0.07870523815595212,0.25009112461529504,0.3667152502304566
0.1261877723361268,0.07774089300908929,0.24727278974341127,0.36638038872421463
0.12471266046571855,0.07678932406799768,0.24448998756963136,0.36604823175236323
0.12325661200055296,0.07585035347464422,0.24174223662057548,0.36571877684322973
0.12181936445366429,0.07492380593712786,0.23902906225769405,0.36539202001290216
0.12040065910346012,0.07400950869149267,0.23634999657690248,0.36506795585754304
0.1190002409379951,0.07310729146413572,0.23370457830973868,0.36474657764117935
0.11761785860010301,0.07221698643480148,0.2310923527260329,0.3644278773791818
0.1162532643333739,0.07133842820015115,0.22851287153805067,0.3641118459176277
0.11490621392895975,0.07047145373789807,0.2259656928061029,0.36379847300874457
0.11357646667319857,0.06961590237149692,0.223450380845573,0.36348774738260803
0.11226378529603856,0.06877161573538246,0.2209665061353725,0.36317965681527364
0.11096793592025306,0.06793843774074079,0.2185136452277583,0.3628741881935059
0.10968868801143,0.06711621454181058,0.2160913806595406,0.36257132757626054
0.10842581432872539,0.06630479450270252,0.2136993008646133,0.36227106025307476
0.10717909087636668,0.06550402816472697,0.21133700008780787,0.3619733707995041
0.10594829685589435,0.06471376821422584,0.20900407830005463,0.3616782431297506
0.10473321461912988,0.06393386945089288,0.20670014111481305,0.36138566054660737
0.10353362962185658,0.06316418875658217,0.20442479970576333,0.36109560578884414
0.10234933037820487,0.062404585064591594,0.2021776707257379,0.36080806107616203
0.10118010841572811,0.06165491932941439,0.19995837622686752,0.3605230081518195
0.10002575823115673,0.060915054496952975,0.19776654358192802,0.3602404283230497
0.09888607724682347,0.060184855475183124,0.19560180540686467,0.3599603024993637
0.09776086576774756,0.05946418910526888,0.1934637994844859,0.35968261122884737
0.0966499269393633,0.058752924133111145,0.19135216868928562,0.3594073347325385
0.09555306670588976,0.058050931181330395,0.189266560913409,0.359134452936983
0.09447009376932547,0.05735808272167284,0.18720662899370777,0.35886394550504697
0.09340081954906215,0.05667425304783533,0.1851720306398994,0.3585957918650774
0.09234505814210403,0.055999318248699886,0.1831624283637927,0.35832997123847965
0.09130262628388697,0.05533315618197329,0.18117748940957035,0.35806646266579756
0.09027334330968534,0.05467564644822423,0.17921688568511884,0.35780524503135513
0.08925703111659772,0.05402667036531225,0.17728029369436737,0.3575462970865434
0.08825351412610455,0.05338611094320159,0.17536739447065286,0.3572895974718009
0.0872626192471847,0.0527538528591546,0.1734778735110638,0.35703512473736365
0.08628417583998643,0.052129782433298216,0.17161142071176805,0.356782857362839
0.08531801568004188,0.05151378760455719,0.16976773030430103,0.3565327737756562
0.08436397292301584,0.05090575790694976,0.16794650079280204,0.3562848523684531
0.08342188406998302,0.05030558444623842,0.1661474348921821,0.35603907151545067
0.08249158793322414,0.04971315987693106,0.16437023946721419,0.35579540958785716
0.08157292560253204,0.049128378379627496,0.16261462547251893,0.35555384496836107
0.08066574041202151,0.04855113563870425,0.1608803078934533,0.3553143560647447
0.07976987790743412,0.047981328820334596,0.15916700568786668,0.35507692132267077
0.07888518581393111,0.047418856550836413,0.1574744417287235,0.3548415192376776
0.07801151400436562,0.04686361889534488,0.15580234274757743,0.3546081283664235
0.07714871446802873,0.04631551733680281,0.15415043927888372,0.3543767273372178
0.0762966412798593,0.045774454755266786,0.1525184656051306,0.3541472948598712
0.07545515057011354,0.04524033540751912,0.15090615970279098,0.35391980973490433
0.07462410049448642,0.04471306490698715,0.14931326318906724,0.3536942508621399
0.07380335120467574,0.04419255020396104,0.14773952126942724,0.3534705972487169
0.07299276481938505,0.043678699566104734,0.1461846826859159,0.3532488280165471
0.07219220539575621,0.0431714225592609,0.14464849966622784,0.3530289224092499
0.07140153890122941,0.04267063002853863,0.14313072787353764,0.3528108597985876
0.07062063318581724,0.042176234079683544,0.14163112635706243,0.3525946196904268
0.06984935795479252,0.04168814806072682,0.14014945750336683,0.3523801817302532
0.06908758474178162,0.041206286543904486,0.13868548698837468,0.35216752570825616
0.06833518688225565,0.04073056530784805,0.13723898373009424,0.3519566315640128
0.06759203948741593,0.040711048082937795,0.13580971984204182,0.35174747939078777
0.06740755982671548,0.04070691786890218,0.13439747058734808,0.35154004943947126
0.06723355747250473,0.04070235890057533,0.13300201433354486,0.3513343221221671
0.06706089414836522,0.040697381096905294,0.13162313250801327,0.3511302780154645
0.06688953916022305,0.040691994186695835,0.13026060955409302,0.3509278978633895
