jointFR1,jointFR2,jointFR3,force
5.943901236054079,5.651541118831556,7.1807888911965065,6.143147288285472
5.6144918284090775,5.341262899991365,6.783081163480233,5.8011774817971125
5.302850943132508,5.04767447582231,6.4604550374780345,5.477692815813498
5.008029114110957,4.769884943693199,6.1523888488246925,5.171704568192187
4.729127433466901,4.507050821197703,5.858236679570523,4.88227668888004
4.465294863052892,4.258373524955191,5.577381103411579,4.608522998435977
4.215725688829191,4.023096983392946,5.309231931356019,4.349604535454216
3.9796571105330782,3.8005053763913224,5.053225012574277,4.104727044976258
3.7563669594515137,3.5899209950514863,4.808821088005846,3.873138600400289
3.5451715374905337,3.3907022152035853,4.575504694402229,3.6541273517945854
3.345423571096599,3.2022415786120733,4.352783116587679,3.4470193938984104
3.1565102739272537,3.023963976156146,4.1401853858169195,3.2511767474506508
2.9778515124928524,2.855324927567092,3.93726132220227,3.0659954478243887
2.8088980692980092,2.695808952592256,3.74358061927182,2.890903735265479
2.6491299983020693,2.5449280287278873,3.558731968805523,2.7253603413361223
2.4980550677932234,2.4022201309211537,3.3823222241775746,2.5688528664513153
2.3552072860314066,2.2672478488860426,3.213975600511383,2.4208962436675856
2.220145505261956,2.139597077909164,3.0533329100278874,2.301560334535383
2.103607464739925,2.018875779240657,2.900050831039244,2.221481158443807
2.0115476101813528,1.9047128063727525,2.7540732978604856,2.1448748670988067
1.923331205212488,1.7986874595613298,2.643481828314317,2.0715878519028177
1.83879977435467,1.7140155382893576,2.585942731161434,2.001473343261319
1.7578013570756907,1.6331499698447953,2.5347355210569082,1.9343911052872993
1.680190240053061,1.5630310360418802,2.484730524346479,1.8702071441508106
1.6058267004445619,1.4959543825870059,2.435892826284375,1.8087934294633314
1.5345767597132134,1.4316644259206237,2.3881887372272503,1.7500276281140044
1.4663119475724962,1.3700464429441315,2.3415857441214207,1.6937928500008483
1.4009090756354907,1.3109904243161896,2.296052464033625,1.639977405124998
1.3386259719621245,1.2543908807769002,2.2515585996367706,1.5884745715398114
1.2856730468628834,1.200146657433679,2.208074896565995,1.5391823736694108
1.2349080805948918,1.1481607556813085,2.165573102564092,1.4920033705329632
1.1862403079775352,1.0983401624421172,2.1240259283389067,1.446844453431735
1.1395827178583828,1.0505956864251824,2.083407010058686,1.4036166526757774
1.0948518982880158,1.0048418011158493,2.04369087341463,1.3622349529460336
1.0519678880695968,0.960996494218729,2.0048528991829726,1.3226181169057365
1.0108540344208956,0.918981123288751,1.9668692902218965,1.2846885166922444
0.9714368564972824,0.8787202772957599,1.9297170398414236,1.248371972936953
0.9336459145345333,0.8401416438786271,1.8933739014871096,1.2135976009767109
0.8974136843802254,0.8031758820549038,1.857818359680988,1.1802976639351772
0.8626754371920097,0.7677565001616347,1.8230296021656645,1.1484074323669975
0.8293691240901667,0.7338197388122443,1.7889874931998322,1.1178650501713605
0.7974352655605914,0.7013044586632018,1.7556725479557493,1.0886114064946761
0.7794069291461785,0.6701520327926982,1.723065907971368,1.0605900133545993
0.761970106813956,0.6403062435016937,1.6911493176118815,1.0337468887296415
0.7450030834006176,0.612166577874824,1.6599051014974282,1.0080304448700368
0.7284906560541795,0.5982584342275872,1.6293161428555787,0.9833913815964505
0.712418184835263,0.5847315765379864,1.599365862759041,0.959782584363574
0.6967715700848389,0.5715735434438648,1.570038200210741,0.9371590268756093
0.6815372307463274,0.5587723369799779,1.5413175930400902,0.9154776780501785
0.666702083600604,0.5463164039118702,1.5131889595758268,0.8946974131362935
0.6522535233742989,0.5341946178578004,1.4856376810623235,0.8747789288007085
0.6381794036835229,0.5223962621644416,1.4586495847877066,0.8556846620052925
0.6244680187768497,0.5109110135036137,1.4322109278934878,0.8373787125059806
0.6111080860429672,0.4997289261587543,1.4063083818367617,0.8198267688114454
0.5980887292499558,0.4888404169712218,1.3809290174772437,0.8029960374468691
0.5853994624845992,0.4782362509178568,1.3560602907626598,0.7868551753751067
0.5730301747615385,0.4679075272924851,1.33169002898713,0.7713742254341452
0.560971115273406,0.45784566646525815,1.307806417598301,0.7565245546560588
0.5492128792543495,0.44804239719488304,1.28439798753003,0.7422787953387063
0.5377463944305734,0.4384897444698922,1.2614536030384254,0.7286107887471551
0.5265629080326825,0.42918001785615767,1.238962450020026,0.7154955313273341
0.5156539743457221,0.4201058003288589,1.2169140247918016,0.7029091233196556
0.5050114427738718,0.4112599375680742,1.1952981233135513,0.6908287196653852
0.49462744639775114,0.4026355276980822,1.174104830834115,0.6792324831033064
0.4844943910032752,0.3942259114513349,1.1533245119436084,0.6680995393588401
0.4746049445619105,0.3860246627388998,1.1329478010146747,0.657409934332119
0.4649520271430665,0.3780255796099735,1.1129655930164728,0.6471445931957279
0.4555288012402048,0.3702226755838164,1.0933690346858216,0.6372852813167913
0.44632866249304226,0.3626101713382145,1.0741495160406065,0.6278145669219163
0.4373452307890093,0.35518248673923913,1.0552986622211782,0.6187157854271361
0.4285723417278405,0.34793423319776495,1.0368083256461058,0.6099730053584822
0.4200040384338962,0.3408602063388342,1.018670578469221,0.6015709957921362
0.411834082237666,0.33395537897055483,1.0008777053254598,0.593495195246295
0.40429791794272085,0.32721489433981854,0.9834221963535474,0.5857316819599043
0.3969205014721349,0.32063405966265723,0.9662967404840692,0.5782671454963266
0.38969754111056687,0.31420833991760877,0.9494942189819917,0.5710888596127722
0.3826248999606287,0.3079333518909474,0.9330076992331373,0.5641846563389671
0.3756985890968524,0.30180485846313954,0.9168304287645903,0.557542901211058
0.3689147610539862,0.29581876312632627,0.9009558294894144,0.5511524696091706
0.3622697036326171,0.28997110472309784,0.8853774921665136,0.5450027241493419
0.3557598340059889,0.28425805239722957,0.8700891710668122,0.5390834930827457
0.34938169311272216,0.27876351263209803,0.8550847788373463,0.5333850496572434
0.3431319403209339,0.2737291169098786,0.8403583815552047,0.5278980923982924
0.3370073483500038,0.26879833853607277,0.8259041939635807,0.5226137262681732
0.3310047984369398,0.2639684764629692,0.8117165748825728,0.5175234446643198
0.32512127573497696,0.2592369233967245,0.7977900227876322,0.5126191122193071
0.3193538649326734,0.2546011617564243,0.7848656996078693,0.5078929483667004
0.3136997460823802,0.2500587598279466,0.7745762650909882,0.5033375116385932
0.3081561906275279,0.24560736810276423,0.7644821320950259,0.49894568466217143
0.30272055761872085,0.24124471579235013,0.7545781071545645,0.4947106598241076
0.29771817718031524,0.23696860750933074,0.7448591759816872,0.4906259255729856
0.29314841805273273,0.2327769201069792,0.735320496342817,0.4866852533312782
0.28867800778993535,0.2286675996690815,0.7259573912366521,0.48288268498968384
0.2843040959016747,0.2246386586426154,0.7167653423601563,0.4792125209578357
0.2800239315869088,0.2206881731060712,0.7077399838501386,0.47566930874655855
0.2758348598189826,0.21681428016661336,0.6988770962884967,0.47224783205796234
0.2717343175939224,0.2130151754796255,0.6901726009597231,0.4689431003607158
0.26771983033485086,0.20928911088452634,0.6816225543497676,0.4657503389288566
0.2637890084458347,0.20563439215103946,0.6732231428758297,0.46266497932346323
0.25993954400876756,0.20204937683041463,0.6649706778371087,0.45968265029743527
0.2561692076171681,0.19853247220637055,0.6568615905769708,0.4567991691045137
0.25247584534103834,0.1950821333408,0.6488924278474162,0.4540105331945109
0.24885737581718256,0.1916968612095316,0.6410598473671221,0.4513129122775315
0.24531178745962903,0.18837520092368626,0.6333606135647163,0.4487026407407284
0.24183713578502994,0.185115740032385,0.6257915934993081,0.44617621040187844
0.23843154084813584,0.18191710690279822,0.6183497529506423,0.44373026358475903
0.2350931847826548,0.17877796917370908,0.6110321526715807,0.441361586501982
0.23182030944300908,0.17569703227897998,0.6038359447959294,0.43906710293157886
0.22861121414269556,0.1726730380374853,0.596758369394941,0.4368438681742458
0.22546425348514407,0.16970476330624068,0.5897967511761009,0.43468906327873774
0.22237783528314314,0.1667910186936456,0.582948496318098,0.4325999895234635
0.21935041856307447,0.1639306473298932,0.5762110894361354,0.430574063142866
0.21638051165035888,0.16112252369176178,0.5695820906719964,0.42860881028767894
0.21346667033267264,0.15836555247913925,0.5630591329035217,0.4267018622086429
0.21060749609764123,0.15565866754077068,0.5566399190683913,0.4248509506537239
0.20780163444186037,0.15300083084683885,0.5503222195973176,0.4230539034693266
0.20504777324822934,0.15039103150611816,0.5441038699519789,0.42130864039641386
0.20234464122871265,0.14782828482554494,0.537982768263219,0.41961316905285617
0.19969100642976975,0.14531163141016973,0.531956873065236,0.4179655810937138
0.19708567479781197,0.14284013630154452,0.5260242011216663,0.4163640485415335
0.19452748880215914,0.1404128881527124,0.5201828253396548,0.41480682027908816
0.19201532611307784,0.13802899843804345,0.514430872768161,0.4132922186973294
0.18954809833258687,0.13568760069626046,0.508766522676924,0.41181863649164313
0.1871247497758153,0.1333878498050775,0.5031880047126567,0.41038453359981025
0.18474425630079336,0.13112892128595227,0.4976935971291969,0.408988434275365
0.18240562418464848,0.12891001063752666,0.49228162508847206,0.40762892429032693
0.18010788904426445,0.1267303326964076,0.4869504590292868,0.4063046482615507
0.1778501147995464,0.12458912102400493,0.48169851310105627,0.40501430709519626
0.1756313926775134,0.12248562731820029,0.476524243659745,0.40375665554406404
0.17345084025551652,0.12041912084869094,0.471426147823383,0.40253049987277684
0.17130760054195357,0.1183888879149117,0.4664027620846445,0.4013346956260129
0.1692008410929215,0.11639423132547605,0.46145266097809046,0.4001681454952099
0.16712975316331385,0.11443446989815614,0.45657445579976774,0.39902979727936
0.1650935508909348,0.112508937979444,0.45176679337697156,0.3979186419357167
0.16309147051226222,0.11061698498280043,0.44702835488605897,0.3968337117164177
0.16112276960855085,0.10875797494473866,0.4423578547163023,0.3957740783872038
0.15918672638102221,0.1069312860979254,0.43775403937785495,0.3947388515245906
0.1572826389539419,0.10513631046053223,0.43321568645198405,0.3937271768880069
0.15540982470443537,0.10337245344109885,0.42874160358180147,0.39273823486356724
0.15356761961794277,0.10163913345821102,0.4243306275018124,0.3917712389763058
0.15175537766826022,0.09993578157433253,0.41998162310465514,0.39082543446782264
0.1499724702211592,0.09826184114315123,0.4156934825434939,0.38990009693644806
0.1482182854606192,0.09661676746985082,0.41146512436857874,0.38899453103714404
0.14649222783674923,0.09500002748372038,0.4072954926965575,0.38810806923849595
0.14479371753451392,0.09341109942257508,0.40318355641118564,0.3872400706342603
0.1431221899624156,0.09184947252845715,0.39912830839413593,0.38638991980705073
0.1414770952603224,0.09031464675413203,0.39512876478466175,0.3855570257418469
0.13985789782566385,0.0888061324799077,0.3911839642669317,0.38474082078712313
0.13826407585725098,0.08732345024033317,0.3872929673838954,0.3839407596614788
0.1366951209160069,0.08586613046035008,0.3834548558765878,0.3831563185037619
0.13515053750192643,0.0844337132004932,0.37966873204783647,0.3823869939647526
0.13362984264660965,0.08302574791075595,0.37593371814936805,0.38163230233856965
0.1321325655207441,0.08164179319275305,0.37224895579136086,0.3808917787320397
0.13065824705593496,0.08028141656983162,0.36861360537352894,0.38016497627034823
0.12920643958030875,0.07894419426479887,0.3650268455368655,0.37945146533736657
0.1277767064673401,0.07762971098494775,0.36148787263519955,0.37875083284912175
0.1263686217973736,0.07633755971408068,0.3579959002257711,0.3780626815589416
0.12498177003133609,0.07506734151124267,0.3545501585780533,0.377386629392874
0.12361574569615474,0.07381866531588954,0.3511498942000859,0.3767223088140449
0.1222701530814169,0.07259114775922948,0.34779436938161545,0.3760693662146707
0.12094460594682768,0.07138441298149106,0.3444828617533686,0.37542746133450894
0.11963872724003874,0.07019809245487624,0.34121466386181165,0.374796266704574
0.11835214882444023,0.06903182481197578,0.33798908275877926,0.37417546711500704
0.117084511216525,0.0678852556794281,0.334805439605377,0.373564759106029
0.11583546333244943,0.06675803751661724,0.33166306928959366,0.37296385048096276
0.11460466224343217,0.06564982945921088,0.3285613200570774,0.3723724598403468
0.11339177293964595,0.06456029716735479,0.3254995531545566,0.37179031613621244
0.11219646810227216,0.06348911267833968,0.32272535634639476,0.37121715824563606
0.1110184278834021,0.0624359542635719,0.32014910719522427,0.3706527345627132
0.10985733969348102,0.061400506289686574,0.3176002323918059,0.3700968026081501
0.10871289799600406,0.06038245908364259,0.31507833039155164,0.3695491286556879
0.10758480410918528,0.05938150880165505,0.3125830095441955,0.3690094873746252
0.10647276601433231,0.05839735730181833,0.31011388773658144,0.368477661487729
0.1053764981706699,0.0574297120202894,0.3076705920500751,0.3679534414438558
0.10429572133636661,0.056478285850895815,0.30525275843198485,0.36743662510463576
0.10323016239552864,0.0555427970280471,0.3028600313804175,0.36692701744460526
0.10217955419093444,0.054622969012831424,0.3004920636419892,0.36642443026419236
0.10114363536229341,0.05371853038218083,0.2981485159218764,0.3659286819149962
0.10012215018982007,0.05282921472099994,0.2958290566056747,0.36543959703681356
0.09911484844292437,0.051954760517151644,0.2935333614925726,0.36495700630590644
0.09812148523382619,0.051094911059200776,0.2912611135393861,0.36448074619400816
0.09714182087591061,0.05024941433682245,0.2890120026149756,0.3640106587376056
0.09617562074664716,0.04941802294377995,0.2867857252646253,0.3635465913170413
0.09522265515490397,0.0486004939833895,0.28458198448396566,0.3630883964450098
0.09428269921249444,0.0477965889763845,0.2824004895020382,0.362635931564034
0.09335553270980029,0.04700607377110144,0.28024095557312667,0.3621890588525307
0.09244093999532177,0.04622871845590926,0.2781031037769768,0.361747645039091
0.09153870985901075,0.04546429727380963,0.27598666082706513,0.36131156122461194
0.09064863541924942,0.044712588539136455,0.2738913588865699,0.36088068271194285
0.0897705140133419,0.043973374556289024,0.27181693539173235,0.36045488884271315
0.08890414709139159,0.043246441540429836,0.26976313288229536,0.36003406284103273
0.08804934011344234,0.04253157954009068,0.26772969883871345,0.35961809166376224
0.08720590244976624,0.04182858236162079,0.26571638552586796,0.3592068658570685
0.0863736472841852,0.0411372474954248,0.2637229498430045,0.358800279418993
0.0855523915203186,0.04045737604393246,0.2617491531796321,0.3583982296677678
0.08474195569065267,0.03978877265124864,0.25979476127714585,0.3580006171156346
0.08394216386833217,0.03913124543443125,0.25785954409590683,0.3576073453479226
0.08315284358157837,0.03848460591634972,0.2559432756875899,0.35721832090716216
0.08237382573064105,0.0378486689600771,0.2540457340725495,0.3568334531820104
0.08160494450719635,0.03722325270476767,0.2521667011219948,0.3564526543007848
0.08084603731610503,0.03660817850298148,0.2503059624447943,0.35607583902940465
0.08009694469944947,0.03600327085940935,0.24846330727869392,0.35570292467354564
0.07935751026277102,0.03540835737096115,0.24663852838577038,0.35533383098483146
0.07862758060343172,0.03482326866817642,0.2448314219519565,0.35496848007088333
0.07790700524102814,0.034247838357922444,0.2430417874904427,0.35460679630906305
0.07719563654978713,0.03368190296734097,0.24126942774881455,0.35424870626375227
0.0764933296928765,0.03312530188901153,0.2395141486197614,0.3538941386070101
0.075799942558566,0.03257787732729578,0.2377757590552052,0.3535430240424695
0.07511533569817624,0.032039474245833865,0.23605407098371423,0.35319529523233106
0.074439372265756,0.03150994031615617,0.2343488992310514,0.35285088672732
0.07377191795943028,0.030989125867387113,0.23266006144374063,0.3525097348994803
0.07311284096436363,0.03068749801732462,0.23098737801551628,0.35217177787768544
0.07246201189728568,0.030565386349657275,0.22933067201654111,0.3518369554857482
0.07181930375252746,0.030444527680373312,0.22768976912526817,0.3515052091830176
0.0711845918495192,0.030324895383233907,0.22606449756284897,0.35117648200735957
0.07055775378170201,0.03020646394428067,0.2244546880299696,0.3508507185204161
0.06993866936680787,0.030089208909356346,0.22286017364602406,0.3505278647550494
0.06932722059846366,0.029973106833998175,0.22128078989051736,0.35020786816487504
0.06872329159907693,0.029858135235601824,0.21971637454661752,0.34989067757579684
0.06812676857396253,0.029744272547756023,0.21816676764675513,0.3495762431394589
0.0675375397666707,0.02963149807665527,0.2166318114201915,0.3492645162885321
0.06695549541547874,0.029519791959499442,0.2151113502424724,0.34895544969375897
0.06638052771100958,0.029409135124793873,0.2136052305866969,0.34864899722268033
0.06581253075494234,0.029299509254467337,0.2121133009765077,0.3483451138999764
0.06525140051978044,0.029190896747727124,0.21063541194074542,0.3480437558693501
0.06469703480964514,0.029083280686577728,0.20917141596970312,0.34774488035689083
0.06414933322206234,0.02897664480292822,0.20772116747289693,0.3474484456358549
0.06360819711071282,0.028870973447220505,0.20628452273830522,0.34715441099280375
0.06307352954911602,0.02876625155850926,0.2048613398930068,0.34686273669504236
0.06254523529521956,0.028662464635932083,0.20345147886517,0.34657338395930465
0.06202322075686689,0.02855959871150804,0.20205480134732312,0.34628631492163303
0.061507393958116816,0.028457640324204836,0.2006711707608726,0.34600149260840274
0.06099766450638955,0.028356576495220442,0.19930045222178983,0.34571888090844116
0.06049394356041477,0.028256394704423315,0.19794251250745387,0.34543844454620254
0.05999614379895788,0.028157082867903027,0.19659722002457114,0.34516014905594533
0.05950417939030182,0.028058629316578265,0.19526444477814442,0.3448839607568793
0.05901796596246221,0.027961022775817967,0.1939440583414498,0.34460984672923783
0.058537420574114644,0.02786425234602996,0.1926359338269652,0.3443377747912368
0.05806246168621346,0.027768307484172527,0.19133994585823455,0.34406771347688697
0.05759300913428218,0.027673177986150044,0.19005597054260503,0.34379963201462066
0.057128984101356514,0.027578853970051054,0.18878388544482338,0.34353350030670365
0.05667030909156103,0.027485325860190646,0.1875235695614399,0.3432692889093966
0.05621690790430213,0.027392584371925655,0.1862749032960005,0.3430069690138358
0.055768705609059416,0.02730062049720028,0.18503776843498643,0.3427465124276086
0.05532562852075918,0.027209425490795802,0.18381204812447383,0.3424878915569876
0.05488760417571348,0.02711899085724906,0.18259762684748293,0.3422310793898035
0.05445456130810937,0.02702930833841105,0.1813943904019999,0.34197604947892757
0.05402642982703308,0.02694036990161508,0.18020222587962254,0.34172277592633993
0.05360314079401442,0.02685216772842841,0.1790210216448307,0.34147123336776
0.053184626401077316,0.02676469420395844,0.17785066731483545,0.34122139695781684
0.052770819949282836,0.026677941906692815,0.17669105373999394,0.3409732423557375
0.05236165582775127,0.02659190359884156,0.1755420729847732,0.3407267457115321
0.05195706949315056,0.026506572217165514,0.17440361830922524,0.3404818836526575
0.05155699744963857,0.026421940864264637,0.17327558415096878,0.3402386332711395
0.051161377229247296,0.02633800280030557,0.17215786610764772,0.3399969721111343
0.05077014737269712,0.0262547514351687,0.17105036091985482,0.339756878156915
0.05038324741063005,0.026172180320995775,0.1699529664545012,0.339518329821263
