jointFR1,jointFR2,jointFR3,force
6.0136284661352395,5.597752197915349,7.610769432129081,6.150612083660615
5.687534137210458,5.2971073469594705,7.188123027559588,5.808374862305176
5.3786422882845235,5.0122919019032555,6.7878929831797725,5.4846238411555595
5.0860527323931635,4.742477880002928,6.408904627924207,5.178370812907481
4.808912258004245,4.486880502026759,6.05004461460552,4.88868019751189
4.546412180229679,4.244755940127699,5.710257722761254,4.614666243407808
4.297786019635824,4.015399183067449,5.392793208644231,4.35549037751608
4.062307302004831,3.7981420126781855,5.093799996270547,4.110358696088806
3.8392874727456765,3.5923510857667353,4.810685568917322,3.8785195889292794
3.628073919981924,3.397426115967871,4.54261586469727,3.659261489894969
3.428048100654324,3.2127981503394802,4.288800443239575,3.4519107469726698
3.2386237642714097,3.037927935763768,4.075238719855279,3.2558296055715643
3.059245269220723,2.8723043704756592,3.8750715481542777,3.0704142990175285
2.889385986818411,2.7154430362833804,3.6958174877175507,2.895093240551773
2.7285467885261045,2.5668848072771793,3.5377792463067603,2.7306040751873235
2.576254612002085,2.4261945310412294,3.3861387930602045,2.5785626620287836
2.432061101879547,2.292959778591257,3.240640023382322,2.434609252165123
2.2955413213786593,2.1667896594573044,3.101037060326136,2.2983193162801503
2.1662925310619694,2.047313698517523,2.9670938463726557,2.1692905056904412
2.0439330312349466,1.9341807713657122,2.8385837515019947,2.047141495490681
1.9281010646757029,1.827058095162939,2.7172280223347496,1.9315108879929788
1.828459049312196,1.7256302720824297,2.629049130266318,1.8220561733186647
1.7535655395462464,1.6295983826075258,2.569557187047455,1.7184527441647302
1.6816832322512816,1.5593742496988818,2.511646064466064,1.6203929619221868
1.6126916109244727,1.4960171256894224,2.458180538269757,1.5275852714707014
1.5464749741795754,1.4352164278157902,2.409805079389023,1.4397533621132406
1.4829222435052252,1.3768696382051473,2.3625837806146093,1.3566353722465996
1.4219267786960836,1.3208783387582905,2.316483051047609,1.2779831354889253
1.3633862006506259,1.2671480473960768,2.2714704405249875,1.2035614661040854
1.307202221241573,1.2155880608431373,2.227514597011966,1.169507055091593
1.2532804799767134,1.1661113036879678,2.184585225669417,1.1473916392456067
1.2015303871791134,1.1186341834688611,2.1426530495286773,1.1258527644391443
1.1518649734265447,1.0730764515451854,2.1016897717089265,1.1048710310151224
1.1042007450003217,1.0293610695230748,2.06166803911497,1.0844278342902784
1.0584575451037308,0.9874140810138436,2.0225614075557607,1.064505327877891
1.0145584206197882,0.9471644885122628,1.9843443082264793,1.0450863888079422
0.9736482856483745,0.9085441351903532,1.9469920154992892,1.0261545843540105
0.9358090008026073,0.8714875914104836,1.9104806159701586,1.0076941404808233
0.8994803694276701,0.8359320457694142,1.874786978711264,0.9896899118308161
0.8646019010754472,0.8018172004924289,1.8398887266805697,0.9721273531722152
0.8311155246250886,0.7690851710039242,1.805764209242136,0.9549924922351322
0.798965491630621,0.7376803895077528,1.772392475752623,0.9382719038659108
0.768098283527371,0.7075495124172722,1.739753250171251,0.9219526854335378
0.7412879654000178,0.6786413314814368,1.7078269066522394,0.906022433425308
0.7259046229272014,0.6509066884594017,1.676594446080406,0.8904692211721366
0.710892615270303,0.6242983932020048,1.6460374735122072,0.875281577646963
0.6962406703825893,0.59877114500413,1.6161381764860434,0.8604484672825632
0.6819379498935736,0.5742814570974006,1.5868793041671223,0.845959270757836
0.6679740294667696,0.5575296934570266,1.5582441472935802,0.831803766704212
0.654338880124809,0.5432515986239259,1.5302165188919203,0.8179721142863038
0.6410228504924848,0.5294915497104774,1.5027807357311285,0.8044548366132488
0.6280166499108465,0.5185803090899641,1.4759216004860556,0.7912428049394081
0.6153113323779075,0.5079283535540504,1.4496243845818726,0.7783272236151909
0.6028982812738267,0.49752801807491265,1.4238748116925297,0.7656996157507588
0.5907691948306177,0.487371924352879,1.3986590418672573,0.7533518095572652
0.5789160723084993,0.4774529680861116,1.3739636562601965,0.7412759253320684
0.5673312008429795,0.4677643068603248,1.349775642439262,0.7294643630560649
0.5560071429286062,0.45829934862703037,1.3260823802512975,0.7179097905728998
0.5449367245070981,0.44905174074042264,1.302871628221522,0.7066051323213443
0.5341130236292264,0.4400153595245696,1.2801315104661533,0.6955435585935801
0.5235293596614149,0.4311843003440431,1.2578505040979424,0.6847184752935139
0.5131792830095167,0.42255286815250115,1.2360174271051836,0.6741235141705461
0.5030565653336494,0.4141155684950647,1.2146214266855389,0.6637525235054613
0.49315519022933085,0.40586709894157025,1.1936519680167743,0.6535995592262889
0.4834693443514193,0.3978023409289656,1.173098823447228,0.6436588764330908
0.47399340895858577,0.3899163519922395,1.1529520620895228,0.6339249213117003
0.464721951857191,0.3822043583643352,1.1332020398016969,0.6243923234174367
0.4556497197245267,0.37466174792650875,1.1138393895405692,0.6150558883107786
0.4467716307924129,0.3672840634915444,1.094855012072765,0.6059105905278791
0.4380827678731287,0.36006699640315143,1.0762400670294117,0.5969515668696682
0.429578371710567,0.353006380435714,1.0579859642910803,0.5881741099941059
0.42125383464039734,0.34609818597939357,1.0400843556900863,0.5795736622969145
0.4131046945438447,0.33933851449634045,1.0225271270177811,0.5711458100668633
0.40512662908048747,0.3327235932345112,1.005306390324962,0.5628862779023664
0.3973154501862234,0.32624977018627865,0.9884144765040028,0.5547909233768241
0.38966709882326156,0.3199135092796822,0.9718439281417715,0.5468557319407574
0.38217763996968157,0.3137113857907764,0.9555874926328243,0.5390768120493881
0.37484325783671746,0.307640081966148,0.939638115542806,0.5314503905048795
0.3676602513025582,0.3016963828452085,0.9239889342123688,0.5239728080029887
0.36062502955200126,0.2958771722724165,0.9086332715923275,0.5166405148743911
0.35373410791186244,0.2901794290900792,0.8935646303011278,0.5094500670114238
0.3469841038725435,0.2846002235028642,0.8787766868960603,0.5023981219714518
0.3403717332866627,0.279136713605599,0.8642632863500053,0.49548143524849403
0.33389380673610336,0.2737861420663733,0.8500184367258101,0.488696856705167
0.32754722605928677,0.2685458329573559,0.836036304040717,0.4820413271573885
0.3213289810308825,0.2634131887261346,0.8223112073135654,0.4755118751046649
0.31523614618657236,0.25838568730074085,0.808837613787784,0.4691056135991294
0.3092658777858547,0.253460879321881,0.7956101343234481,0.46281973724684716
0.3034154109062295,0.24863638549621192,0.7826235189519739,0.4566515193352117
0.29768205666244907,0.24390989406482133,0.7698726525872466,0.4505983090805671
0.2920631995448274,0.2392791583813627,0.757352550887243,0.4446575289904733
0.2865562948709154,0.23474199459457323,0.7450583562604469,0.438826672335309
0.2811588663451301,0.23029627943018205,0.7329853340115566,0.4331033007241653
0.27586850372119776,0.22593994806744455,0.7211288686212383,0.42748504178022734
0.270682860562537,0.22167099210580732,0.7094844601548516,0.42196958691107894
0.26559965209594105,0.21748745761740662,0.6980477207952975,0.416554689169585
0.26061665315416294,0.21338744328134207,0.6868143714953168,0.41123816120121787
0.2557316962032199,0.20936909859585418,0.6757802387447549,0.4060178732738971
0.2509426694504453,0.20543062216473684,0.6649412514484869,0.40089175138659916
0.24624751502951572,0.2015702600544984,0.6542934379108702,0.3958577754531751
0.2416442272588674,0.19778630421895915,0.6438329229227353,0.3909139775579906
0.23713085097009498,0.19407709098813086,0.6335559249471121,0.38605844028015973
0.23270547990309617,0.190440999618399,0.6234587534000018,0.3812892950833035
0.22836625516488554,0.18687645090115101,0.6135378060226921,0.37660472076790963
0.22411136374915344,0.1833819058271633,0.6037895663422008,0.37200294198351275
0.21993903711379167,0.17995586430417032,0.5942106012166108,0.3674822277980433
0.2158475498137414,0.1765968639251776,0.5847975584621592,0.36304089032182385
0.2118352181866557,0.1733034787852008,0.5755471645590708,0.35867728338380855
0.20790039908898397,0.1700743183442246,0.5664562224332508,0.35438980125778086
0.20404148868021169,0.1669080263342838,0.5575216093110551,0.3501768774363245
0.20025692125309183,0.16380327970867303,0.5487402746444676,0.346036983450498
0.19654516810781894,0.16075878763138896,0.5401092381041157,0.341968627733227
0.19290473646818676,0.15777329050500322,0.531625587637665,0.33797035452453716
0.1893341684378755,0.15484555903524744,0.523286477591208,0.334040742816826
0.18583203999509848,0.15197439333068252,0.5150891268913764,0.33017840533846254
0.18239696002392577,0.14915862203589658,0.5070308172859803,0.32638198757408826
0.17902756938068445,0.14639710149675633,0.4991088916410622,0.32265016682005426
0.17572253999391227,0.1436887149563063,0.4913207522923506,0.3189816512735231
0.17248057399641178,0.14103237177997519,0.48366385944914536,0.31537517915381236
0.16930040288802808,0.13870924433223764,0.47613572964878115,0.3118295178546358
0.16618078672783268,0.1364476795112992,0.468733934259846,0.3083434631259574
0.1631205133544624,0.13422732970038287,0.4614560980324378,0.30491583828422586
0.16011839763342214,0.13204732925220763,0.45429989769377843,0.30154549344982823
0.157173280730214,0.12990683406809567,0.44726306058758825,0.2982313048106366
0.15428402940821487,0.12780502096073465,0.44034336335567814,0.2949721739105916
0.15144953535026576,0.1257410870385599,0.4335386306602673,0.291767026962297
0.1486687145029982,0.12371424911095275,0.4268467339456057,0.2886148141826636
0.14594050644295467,0.12172374311348755,0.42026559023753096,0.2855145091506693
0.14326387376361663,0.1197688235524843,0.41379316097961794,0.2824651081863533
0.14063780148248564,0.11784876296815705,0.40745906172620217,0.2794656297502012
0.1380612964674088,0.11596285141567664,0.40401517958334554,0.27651511386211103
0.13553338688137398,0.11411039596348416,0.4006137996330532,0.2736126215391714
0.13305312164503771,0.11229072020823072,0.39725406251571327,0.270757234251516
0.13061956991628207,0.11050316380573366,0.39393514026548093,0.2679480533955494
0.12823182058612778,0.10874708201735905,0.39065623475120526,0.26518419978387364
0.12588898179036492,0.10702184527128311,0.38741657620042025,0.2624648131512701
0.12359018043628708,0.10532683873807713,0.38421542180194845,0.2597890516761267
0.12133456174394741,0.10366146192010972,0.3810520543829421,0.25715609151671914
0.11912128880137676,0.10202512825425902,0.377925781156367,0.25456512636178474
0.11694954213323278,0.10041726472746015,0.3748359325351791,0.2520153669948554
0.11481851928237108,0.09883731150462416,0.37178186100962196,0.24950604087183081
0.1127274344038523,0.09728472156848511,0.36876294008426513,0.24703639171130312
0.11067551787092,0.095758960370949,0.3657785632716013,0.24460567909716205
0.10866201589250685,0.09425950549553497,0.362828143139152,0.24221317809302848
0.10668619014184338,0.09278584633051101,0.35991111040723855,0.23985817886808747
0.10474731739576462,0.0913374837523474,0.35702691309468304,0.23753998633390577
0.10284468918432507,0.08991392981912294,0.35417501570988197,0.2352579197918403
0.10097761145035256,0.08851470747352774,0.35135489848481805,0.2330113125906567
0.0991454042185844,0.0871393502551322,0.34856605664968865,0.23079951179399685
0.09734740127404576,0.08578740202158819,0.3458079997459973,0.2286218778573466
0.09558294984934598,0.08445841667845766,0.34308025097601225,0.22647778431417104
0.09385141032057995,0.08315195791736085,0.3403823465866578,0.2243666174708966
0.09215215591153691,0.0818675989621579,0.3377138352859832,0.22228777611043563
0.09084699472539093,0.08060492232288408,0.33507427769043163,0.2202406712039577
0.08991655644182989,0.07936351955717014,0.3324632458012948,0.21822472563062678
0.08899715859732718,0.078142991038888,0.3298803225087392,0.21623937390503392
0.08808861772536673,0.07694294573377591,0.327325101121934,0.21428406191206592
0.08719075625632539,0.07576300098180067,0.3247971849238811,0.21235824664896014
0.08630340221894175,0.07460278228602857,0.3222961867495999,0.210461395974308
0.08542638895837283,0.07346192310777988,0.3198217285864089,0.20859298836377613
0.08455955486992826,0.07234006466785825,0.3173734411951199,0.2067525126723254
0.083702743147621,0.07123685575364547,0.3149509637509966,0.20493946790271572
0.08285580154671902,0.07015195253186146,0.31255394350342924,0.20315336298009337
0.08201858215952734,0.06908501836680558,0.3101820354532938,0.20139371653246546
0.08119094120367032,0.06803572364388855,0.30783490204705255,0.19966005667687237
0.08037273882218429,0.06700374559828104,0.3055122128866783,0.19795192081107887
0.07956383889476726,0.06598876814850763,0.30321364445455323,0.19626885541060932
0.07876410885956799,0.06499048173482314,0.30093887985252477,0.19461041583095945
0.07797341954493012,0.06400858316220959,0.2986876085543526,0.19297616611482493
0.07719164501053863,0.06304277544784687,0.2964595261708194,0.19136567880419003
0.07641866239744557,0.06209276767290217,0.2942543342268211,0.1897785347571293
0.07565435178648099,0.061158274838505555,0.2920717399497781,0.18821432296917756
0.07489859606458105,0.06023901772576701,0.2899114560687628,0.18667264039913048
0.0741512807985915,0.059334722759709746,0.28777320062375056,0.18515309179914216
0.07341229411612792,0.058445121876988027,0.28565669678445205,0.18365528954899196
0.07268152659309772,0.05756995239726925,0.2835616726781993,0.18217885349439708
0.07195887114750982,0.05670895689816513,0.2814878612263967,0.180723410789251
0.07124422293921857,0.05586188309359119,0.2794349999890733,0.1792885957416737
0.070537479275268,0.055028483715453436,0.27740283101708085,0.17787404966376266
0.06983853952052026,0.05420851639854951,0.2753911007115497,0.1764794207249372
0.06914730501326992,0.05340174356858618,0.2733995596901715,0.1751043638087746
0.0684636789855619,0.05260793233321415,0.2714279626599676,0.17374854037323642
0.06778756648794623,0.051826854375983666,0.2694760682961732,0.17241161831419136
0.0671188743184179,0.05105828585313277,0.2675436391269066,0.17109327183213946
0.06645751095530333,0.05030200729311496,0.2656304414233144,0.16979318130205046
0.0658033864938688,0.04955780349878658,0.26373624509488724,0.16851103314622815
0.06515641258643795,0.048825463452166984,0.2618608235896649,0.16724651971011806
0.06451650238581781,0.04810478022169529,0.2600039537990768,0.1659993391409781
0.06388357049184351,0.047395550871904835,0.25816541596714204,0.1647691952693322
0.06325753290086251,0.04669757637544414,0.2563449936038211,0.16355579749313426
0.06263830695798918,0.0460106615273681,0.2545424734022612,0.16235886066456748
0.06202581131196998,0.045334614861638256,0.25275764515975463,0.16117810497940901
0.06141996587250825,0.0446692485697564,0.25099030170218684,0.16001325586889242
0.06082069176990623,0.04401437842147493,0.24924023881179513,0.15886404389400063
0.060227911316889905,0.04336982368751674,0.2475072551580504,0.15773020464212648
0.05964154797248941,0.042735407064248054,0.2457911522315046,0.1566114786260383
0.05906152630785575,0.04211095460024439,0.2440917342804314,0.15550761118509193
0.058487771973900045,0.041496295624693924,0.24240880825011746,0.15441835238862867
0.05792021167064931,0.04089126267758447,0.24074218372465128,0.1533434569415055
0.057358773118217576,0.04029569144162182,0.23909167287108968,0.15228268409170226
0.05680338502929765,0.039709420675829166,0.23745709038586105,0.1512357975399514
0.056253977083083814,0.039132292150777626,0.23583825344328968,0.1502025653513424
0.05571047990054109,0.03856415058540286,0.23423498164612666,0.14918275986884796
0.055172825020941244,0.03800484358535938,0.23264709697798636,0.1481761576287263
0.05464094487959053,0.03745422158287015,0.23107442375757037,0.14718253927775102
0.05411477278667831,0.03691213777802971,0.22951678859460545,0.14620168949222517
0.053594242907179755,0.03637844808151658,0.227974020347387,0.1452333968987343
0.053079290241749795,0.03585301105867822,0.22644595008184698,0.14427745399659542
0.052569850608548845,0.03533568787494723,0.22493241103207784,0.14333365708196283
0.05206586062594479,0.0348263422425541,0.22343323856221398,0.14240180617354786
0.051567257696038156,0.03432484036849781,0.22194827012961893,0.14148170493991574
0.05107397998896125,0.033831050903741056,0.2204773452493034,0.14057316062832004
0.05058596642790453,0.033344844893596015,0.21902030545950302,0.1396759839950392
0.050103156674826094,0.032866095729266354,0.21757699428836674,0.13878998923717897
0.049625491116803123,0.03239467910051541,0.21614725722169492,0.13791499392590506
0.04915291085298621,0.03193047294943019,0.21473094167166984,0.13705081894107443
0.048685357682120026,0.03147335742525015,0.21332789694652887,0.1361972884072301
0.04822277409059576,0.03102321484023085,0.21193797422113958,0.13535422963092905
0.04776510324100301,0.03057992962651912,0.21056102650842212,0.13452147303937126
0.04731228896115061,0.0301433882940072,0.20919690863157814,0.13369885212030075
0.04686427573352761,0.029713479389142816,0.2078454771970959,0.13288620336314838
0.046421008685177734,0.029290093454670596,0.20650659056847487,0.132083366201388
0.04598243357796153,0.028873122990276445,0.20518010884065663,0.1312901829560785
0.04554849679918305,0.028462462414115985,0.20386589381510833,0.13050649878056456
0.045119145352558135,0.028058008025199532,0.20256380897553927,0.1297321616063097
0.04469432684950368,0.027659657966614182,0.2012737194642149,0.12896702208983593
0.044273989500727896,0.027267312189560133,0.19999549205884293,0.12821093356074495
0.04385808210810334,0.026880872418180046,0.19872899515000397,0.12746375197079762
0.04344655405680532,0.02650024211516111,0.19747409871910215,0.12672533584402615
0.04303935530769916,0.026125326448091624,0.19623067431680363,0.12599554622785772
0.042636436389961306,0.025756032256549988,0.1949985950419637,0.1252742466452261
0.04223774839391985,0.025392268019908903,0.19377773552098865,0.12456130304764967
0.041843242964101225,0.025033943825838234,0.19256797188764097,0.12385658376925408
0.04145287229247017,0.024680971339486657,0.1913691817632559,0.12315995948172015
0.041066589111851605,0.024333263773325897,0.19018124423734806,0.12247130315013476
0.04068434668952299,0.02399073585764122,0.1890040398486068,0.12179048998972579
0.040306098820967355,0.023653303811651982,0.18815121574777138,0.12111739742346343
0.039931799823776766,0.023320885315247397,0.1875598346543439,0.12045190504050597
0.03956140453169765,0.022993399481320065,0.1869711440371209,0.1197938945554744
0.03919486828880948,0.022670766828686295,0.18638513273719926,0.11914324976853662
0.038832146943828735,0.022352909255575315,0.18580178991419172,0.11849985652628416
0.03847319684453104,0.022039750013675474,0.1852211050240562,0.11786360268338456
0.03811797483228427,0.021731213682724126,0.18464306779807171,0.11723437806499239
0.03776643823668671,0.021427226145626865,0.18406766822291742,0.1166120744299033
0.03741854487030373,0.02112771456409407,0.1834948965217984,0.11599658543443454
0.037074253023497955,0.020832607354783428,0.18292474313657414,0.1153878065970175
0.03673352145934714,0.020541834165934136,0.182357198710847,0.11478563526348594
0.03639630940864556,0.020255325854483086,0.18179225407396027,0.11418997057304653
0.036062576564983635,0.019973014463651018,0.18122990022587238,0.1136007134249161
0.03573228307990267,0.019694833200987527,0.1806701283228611,0.11301776644561293
0.03540538955811958,0.019420716416863604,0.18011292966402404,0.11244103395688705
0.035090621782341,0.01915059958340315,0.17955829567853354,0.11187042194427661
0.034888819298337606,0.018884419273840936,0.17900621791362004,0.11130583802627851
0.0346885162834281,0.01862211314229867,0.1784566880232401,0.1107471914241178
0.03448969750232926,0.018363619903969397,0.1779096977574035,0.11019439293210645
0.034292348028888406,0.01816931955959994,0.17736523895212897,0.10964735488857703
