jointHR1,jointHR2,jointHR3,force
6.389871915869985,5.4583245442398045,7.730868443981802,6.150612083660615
6.040157713906447,5.160114596373,7.301112068648168,5.80837483176006
5.708933993631081,4.877946385323028,6.894175608120928,5.484624142936506
5.395232527981879,4.610963346830238,6.508862445203523,5.178371720984163
5.0981356271629,4.358354521232077,6.144038453572882,4.8886819057615245
4.816773503961955,4.119352128224286,5.798628739241396,4.6146688737879975
4.550321776357767,3.8932292705333142,5.471614551830818,4.3554939876417125
4.297999100264168,3.6792977596492924,5.162030356810747,4.110363286250824
4.059064925631315,3.4769060571329375,4.86896106031557,3.8785251085909365
3.832817369477261,3.285437325354374,4.591539378590386,3.659267843699009
3.6185911997578897,3.104307581848295,4.328943344530685,3.4519178002909277
3.4157559243006816,2.932963951778855,4.080393944172998,3.2558371896265488
3.2237139793284952,2.7708830133003532,3.8451528763659644,3.070422215603812
3.0418990123847944,2.617569230876778,3.6225204292038127,2.895101266383316
2.86977425474197,2.472553471885654,3.442953381868379,2.730604075187145
2.706830978630676,2.338085582624693,3.2942117864651586,2.5785626620284923
2.5525870348709705,2.2112780035248587,3.1518827272533922,2.436372477102758
2.4065854667161903,2.092852908952619,3.015983427993895,2.3266951188448286
2.26839319593886,1.9933890828317244,2.8855941474405777,2.2219909909646454
2.1596547270841997,1.8984888810726612,2.7604942488815847,2.1220360968875114
2.069276191388184,1.8079460305841504,2.640471907357173,2.0363538223514452
1.9825455550657034,1.7215635248335042,2.5253237579552,1.9566245116031507
1.8993166115311653,1.6391532086149903,2.4148545581423657,1.8805091496922122
1.819448999295649,1.5605353814048821,2.34796274679821,1.8078449079849646
1.7428079685393052,1.4855384184715812,2.2990120080895977,1.738476265192715
1.6692641570016702,1.413998408946356,2.2535404826765872,1.6722546800627525
1.5986933748180034,1.345758810095849,2.2091629155881645,1.609038278717281
1.530976397944598,1.2872440973885189,2.165847219289035,1.5486915559849865
1.4659987698302688,1.2352778889930691,2.123562400800828,1.4910850900992683
1.4036506110048976,1.1854091149363164,2.0822785207596866,1.436095270165152
1.3459887488870728,1.1375536389427974,2.041966654083046,1.3836040358236774
1.2924345357038522,1.0916306899295296,2.002598852180708,1.3334986285680621
1.2410301162338313,1.0475627275818062,1.9641481066479929,1.2856713541903904
1.1916891975770108,1.0052753132957333,1.9265883143812668,1.2400193558608688
1.1443289418492582,0.9646969862732975,1.8898942440586042,1.1964443973639722
1.098869828087548,0.925759144564291,1.8540415039306664,1.1548526560370778
1.0576435518120326,0.888395930857629,1.8190065108691273,1.115154524977511
1.0355196819669708,0.8525441228324915,1.784766460622125,1.077264424103345
1.0139395881024917,0.8181430278872652,1.7512992992282732,1.0411006196718418
0.9928863538741088,0.7851343820715484,1.718583695542754,1.0065850518771364
0.9723437279985403,0.7534622530534438,1.686599014830894,0.9736431701657061
0.9522960937245961,0.7230729469610597,1.6553252933864522,0.9422037759243116
0.9327284398179254,0.6939149189435811,1.6247432141335898,0.9121988722105695
0.9136263329819962,0.6659386873034314,1.5948340831731551,0.8835635202110436
0.8949758916417274,0.6390967510569798,1.5655798072355276,0.8562357021258622
0.8767637610200103,0.6133435107869347,1.5369628720037942,0.8301561901923106
0.8589770894409798,0.5886351926550335,1.5089663212725084,0.8052684215727253
0.841603505797341,0.5649297754488687,1.4815737369086923,0.7815183788442975
0.8246310981222971,0.5522272841159246,1.4547692195830961,0.7588544758401298
0.8080483932097253,0.5405942389149281,1.4285373702410329,0.7372274486021007
0.791844337229157,0.5292454756747218,1.402863272283343,0.7165902512168122
0.7760082772849097,0.5181724570926545,1.3777324744292485,0.6968979563161148
0.7605299438713181,0.5073669610326217,1.3531309742339932,0.6781076600334791
0.745399434178525,0.49682106699803746,1.329045202235267,0.660178391216837
0.7306071962056417,0.4865271432384565,1.3054620067034701,0.6430710247074102
0.7161440136403225,0.47647783445878616,1.2823686389718731,0.6267481985025809
0.702000991465922,0.4666660501015662,1.2597527393237102,0.611174234628995
0.6881695422594087,0.4570849531742915,1.2376023234141624,0.5969899357130706
0.674641373145118,0.4477279495951499,1.2159057692060813,0.5851724967545605
0.6614084733712238,0.4385886780318827,1.1946518043991663,0.5736160670721813
0.6484631024775289,0.42966100020975145,1.1738294943331122,0.562313658622879
0.6357977790247853,0.4209389916657759,1.1534282303460475,0.551258522456972
0.6234052698573033,0.412416932927579,1.1334377185703266,0.5404441386589728
0.6112785798720526,0.4040893010962255,1.1138479691484657,0.5298642067664142
0.5994109422688526,0.39595076181349814,1.0946492858527084,0.5195126366426238
0.5877958092575459,0.38799616159500755,1.075832256092367,0.509383539780624
0.5764268431993,0.38022052051147853,1.0573877412937307,0.499471221016521
0.5652979081603486,0.37261902520141793,1.039306867637936,0.4897701706318573
0.5544030618576097,0.36518702219921967,1.0215810171427926,0.48027505682545635
0.5437365479766616,0.357920011563542,1.0042018190751063,0.4709807185362938
0.5332927888435732,0.35081364079155214,0.987161141680598,0.4618821585998778
0.5230663784330256,0.3438636990053536,0.9704510842190224,0.452974537221525
0.513052075696062,0.33706611139756953,0.9540639692925933,0.44425316575076246
0.5032447981916658,0.3304169339237302,0.9379923354563013,0.4357135007419099
0.49363961600716416,0.3239123482296929,0.9222289300991595,0.4273511382866483
0.48423174595323054,0.3175486568029286,0.9067667025858608,0.42018416170992223
0.47501654601998133,0.31132227833704545,0.8915987976487445,0.41411934052488186
0.46598951008135436,0.3052297432994528,0.8767185490203792,0.4083347951951908
0.45714626283561044,0.29926768969256073,0.8621194732974501,0.40281762870573457
0.44848255497041706,0.2934328589993836,0.8477952640270183,0.39755552894157903
0.43999425854156393,0.28772209230486884,0.8337397860065685,0.3925367423611843
0.43167736255491485,0.2821323265846957,0.8199470697896116,0.3877500488504332
0.42352796874173027,0.2766605911536891,0.8064113063889278,0.3831847377045977
0.41554228751799516,0.27130400426638707,0.7931268421698605,0.3788305846877351
0.4077166341188633,0.2660597698626585,0.780088173926367,0.37467783012126105
0.40004742489977585,0.26092517445161917,0.767289944132824,0.37071715795561205
0.3925311737962457,0.25589758412741587,0.7547269363648605,0.3669396757809687
0.3851644889346964,0.2509744417107768,0.7423940708827688,0.363336895734978
0.37794406938713604,0.24615326401050414,0.7302864003712848,0.35990071626730397
0.37086670206280525,0.24143163919938299,0.7183991058297847,0.3566234047226246
0.3639292587302872,0.23680722429924378,0.7067274926071851,0.3534975807054159
0.3571286931638937,0.2322777427701656,0.6952669865760408,0.3505162001915041
0.35046203840845347,0.2278409821990613,0.6840131304405745,0.3476725403529293
0.3439264041569218,0.2234947920830999,0.6729615801735707,0.3449601850641703
0.3375189742355119,0.21923708170366357,0.662108101577257,0.3423730110592016
0.3312370041913139,0.21506581808671116,0.6514485669635095,0.3399051747102221
0.32507781897761573,0.21097902404565777,0.6409789519488813,0.3375510994002068
0.31903881073238355,0.2069747763030329,0.6306953323601445,0.33530546346266604
0.3131174366455822,0.2030512036873759,0.6205938812461953,0.33316318866320355
0.3073112169112321,0.19920648540199842,0.6106708659923485,0.3311194291985879
0.30161773276030257,0.19543884936239414,0.600922645533188,0.3291695611901484
0.29603462457073576,0.19174657059923733,0.5913456676602973,0.32730917264934195
0.29055959005107723,0.18812796972405715,0.5819364664213411,0.32553405389432427
0.28519038249436446,0.18458141145481027,0.5726916596071054,0.3238401883973153
0.2799248090990887,0.18110530319870505,0.5636079463232284,0.32222374404344495
0.2747607293542038,0.17769809368976314,0.5546821046434918,0.3206810647826357
0.269696053485302,0.17435827167871204,0.5459109893416623,0.31920866265689984
0.2647287409592202,0.1710843646729297,0.5372915296989866,0.3178032101862218
0.2598567990444722,0.16787493772425116,0.5288207273845544,0.3164615330969486
0.2550782814250307,0.16472859226257236,0.520495654405865,0.3151806033773271
0.25039128686510276,0.16164396497326244,0.512313451127012,0.3139575326455229
0.2457939579226575,0.1586197267164992,0.5042713243520354,0.3127895658161016
0.24128447970957267,0.1556545814867359,0.4963665454710473,0.31167407505159384
0.2383609253555261,0.15274726541057543,0.48859644866685836,0.3106085539863491
0.23596354432634475,0.14989654578141814,0.4809584291799085,0.30959061221047257
0.23360459245002052,0.14710122012933285,0.47344994162939047,0.3086179700021715
0.2312828782549115,0.1443601153246516,0.4660684983885348,0.3076884532973707
0.22899726711717255,0.14167208671387516,0.45881166801211193,0.3067999888859499
0.22674667822485134,0.13903601728653775,0.45167707371426746,0.3059505998244347
0.2245300817051359,0.1364508168717376,0.4446623918948913,0.3051384010554278
0.22234649590607303,0.13391542136310058,0.43776535071278455,0.3043615952245036
0.2201949848245447,0.13142879197100193,0.4309837287039533,0.3036184686856996
0.2180746556727159,0.12898991450092617,0.4243153534434294,0.30290738768714526
0.21598465657557941,0.1265977986568902,0.41775810024906823,0.30222679472873626
0.21392417439261296,0.12425147736891123,0.41130989092584036,0.3015752050841321
0.21189243265693186,0.12195000614353918,0.4049686925491949,0.3009512034797003
0.2098886896256703,0.11969246243652382,0.3987325162861082,0.30035344092335753
0.20791223643565387,0.11747794504672776,0.39259941625250616,0.29978063167657626
0.20596239535874095,0.1153055735304293,0.38656748840578303,0.2994508376047994
0.20403851815150814,0.11317448763520971,0.3820607647522427,0.29970497717511246
0.20213998449423343,0.11108384675264321,0.3788288892112208,0.29994024260718266
0.20026620051440258,0.10903282938905029,0.3756355939985856,0.30015748690903976
0.19841659739020995,0.10702063265360512,0.37248011025952277,0.3003575248810785
0.19659063002977245,0.10504647176312137,0.36936169842769995,0.30054113483269607
0.19478777582199625,0.10310957956286343,0.3662796467070841,0.300709060221824
0.1930075334552523,0.1012092060627689,0.36323326963655744,0.3008620112208089
0.19124942180022086,0.09934461798848865,0.36022190673284427,0.3010006662119523
0.1895129788534617,0.09751509834667466,0.35724492120753837,0.30112567321585937
0.1877977607384399,0.09571994600398187,0.35430169875422046,0.3012376512556143
0.1861033407609199,0.09395847527925155,0.3513916464018656,0.30133719165966044
0.1844293085158028,0.09223001554839733,0.3485141914309562,0.3014248593061363
0.18277526904263047,0.09053391086150558,0.34566878034891424,0.3015011938112928
0.18114084202713765,0.08886951957170014,0.34285487792160163,0.30156671066450313
0.17952566104636253,0.08723621397533904,0.3400719662578906,0.30162190231226227
0.1779293728549679,0.08563337996312109,0.33731954394437524,0.30166723919346183
0.17635163671054316,0.08406041668170877,0.33459712522752705,0.3017031707281317
0.1747921237357778,0.08251673620548022,0.3319042392406988,0.30173012626173634
0.17325051631551225,0.08100176321804836,0.3292404292735318,0.3017485159670177
0.1717265075267752,0.07951493470319276,0.3266052520814555,0.30175873170529455
0.1702198006000173,0.07805569964486997,0.32399827723309627,0.30176114784903585
0.16873010840985098,0.076623518735981,0.3214190864934996,0.3017561220674506
0.16725715299368749,0.07521786409558145,0.3188672732412452,0.3017439960767483
0.16580066509676006,0.07383821899424764,0.3163424419175571,0.301725096356663
0.16436038374209305,0.07261385459965675,0.3138442075056713,0.3016997348347539
0.16293605582405823,0.07148009033935043,0.3113721950388184,0.3016682095399278
0.16152743572423156,0.07036566010602219,0.30892603913520644,0.3016308052265684
0.1601342849483347,0.069270198252672,0.3065053835585547,0.3015877939705913
0.1587563717831052,0.06819334700750346,0.3041098808027576,0.3015394357386878
0.157393470972008,0.06713475627419485,0.3017391916993373,0.30148597893195705
0.15604536340875452,0.06609408343816747,0.29939298504644807,0.30142766090508666
0.15471183584765402,0.06507099317864273,0.2970709372582192,0.3013647084621681
0.15339268062987083,0.06406515728629325,0.29477273203332377,0.3012973383302092
0.15208769542471756,0.06307625448629739,0.29249806004170353,0.30122575761133663
0.15079668298515086,0.0621039702666073,0.2902466186284418,0.30115016421465035
0.1495194509166941,0.06114799671126314,0.2880181115338287,0.3010707472686466
0.1482558114590415,0.06020803233857541,0.28581224862872534,0.30098768751507654
0.14700558127964475,0.0592837819440134,0.28362874566436536,0.3009011576850825
0.14576858127862086,0.05837495644764745,0.28146732403579167,0.3008113228584026
0.14454463640435355,0.05748127274598136,0.2793277105581702,0.3007183408064096
0.14333357547919529,0.05660245356804061,0.27720963725525616,0.30062236231970696
0.14213523103470982,0.05573822733556766,0.2751128411593271,0.30052353152098
0.1409494391559259,0.05488832802719101,0.27303706412195483,0.30042198616376237
0.1397760393340982,0.05405249504643572,0.2709820526349904,0.3003178579177552
0.13861487432750574,0.05323047309345241,0.26894755766119083,0.3002112726412992
0.13746579002983383,0.05242201204033703,0.26693333447395884,0.3001023506415811
0.13632863534572215,0.051626866809932004,0.26493914250566,0.2999912069231232
0.13520326207307243,0.050844797257989516,0.262964745204046,0.2998779514250888
0.1340895247917409,0.05007556805859048,0.26100990989632367,0.29976268924790006
0.13298728075825572,0.04931894859271391,0.2590744076604319,0.2996455208696521
0.13189638980622082,0.04857471283985637,0.25715801320312437,0.2995265423527862
0.13081671425208696,0.04784263927260368,0.2552605047444567,0.2994058455414531
0.1297481188059884,0.04712251075405871,0.25338166390833994,0.299283518249992
0.12869047048735582,0.04641411443803789,0.25152127561878057,0.29915964444292265
0.12764363854504057,0.045717241671945685,0.24967912800151293,0.29903430440683165
0.12660749438169133,0.04503168790224721,0.24785501229069662,0.29890757491452147
0.12558191148214376,0.04435725258245127,0.24604872274039558,0.2987795293817642
0.12456676534559558,0.0436937390835308,0.24426005654056482,0.2986502380170022
0.12356193342135036,0.04304095460670332,0.2424888137372856,0.2985197679643037
0.12256729504792863,0.04239871009849616,0.24073479715700397,0.29838818343988627
0.1215827313953542,0.041766820168029906,0.23899781233453687,0.29825554586248804
0.12060812541043414,0.041145103006448136,0.2372776674446455,0.2981219139778757
0.11964336176485846,0.04053338030843001,0.23557417323694807,0.29798734397774107
0.11868832680596536,0.0399314771957221,0.23388714297399193,0.2978518896132488
0.11774290851001057,0.039339222142628416,0.23221639237230285,0.29771560230347216
0.11680699643780296,0.038756446903396746,0.23056173954623294,0.2975785312389452
0.11588048169256743,0.038182986441449684,0.22892300495444418,0.2974407234805577
0.11496325687990994,0.037618678860400045,0.22730001134888433,0.2973022240539963
0.11405521606975771,0.0370633653368001,0.22569258372609968,0.29716307603993597
0.11315625476016888,0.036516890054571705,0.22410054928075018,0.2970233206601741
0.1122662698428944,0.03597910014107075,0.22252373736120745,0.2968829973598879
0.11138515957059864,0.03544984560473363,0.22096197942710272,0.2967421438861896
0.1105128235256368,0.03492897927426264,0.2194151090087142,0.2966007963631515
0.109649162590304,0.034416356739303544,0.21788296166809484,0.2964589893634537
0.10879407891846415,0.03391183629257377,0.2163653749618295,0.29631675597680907
0.10794747590848491,0.033415278873398235,0.21486218840532278,0.2961741278753124
0.10710925817739919,0.03292654801261141,0.21337324343854536,0.29603113537585435
0.1062793315362216,0.032445509778789794,0.21189838339313027,0.29588780749972243
0.10545760296635348,0.03197203272577276,0.2104374534607667,0.2957441720295312
0.10464398059701346,0.03150598784143843,0.20899030066278756,0.29560025556358926
0.10383837368363263,0.031047248497697244,0.20755677382090187,0.2954560835678254
0.10304069258715781,0.03059569040167176,0.20613672352899814,0.2953116804253825
0.10225084875421175,0.030151191548023704,0.2047300021259546,0.29516706948398397
0.1014687546980571,0.02971363217240519,0.20333646366939795,0.29502227310117424
0.10069432398032119,0.029282894705993212,0.2019559639103623,0.29487731268752815
0.09992747119343215,0.028858863731086704,0.20058836026878124,0.29473220874792183
0.09916811194372954,0.028441425937727915,0.19923351180978566,0.29458698092095215
0.09841616283520827,0.028030470081330194,0.19789127922073768,0.29444164801658823
0.09767154145385637,0.027625886941275102,0.1965615247889776,0.2942962280521363
0.09693416635255703,0.027227569280458663,0.1952441123802342,0.2941507382865919
0.09620395703651752,0.026835411805760545,0.19393890741765496,0.29400519525345303
0.09548083394919687,0.026449311129408737,0.19264577686143558,0.293859614792064
0.09476471845870227,0.026069165731218202,0.19170488403843744,0.293714012077558
0.09405553284462731,0.025694875921680738,0.19106919343864592,0.29356840164945797
0.09335320028530686,0.02532634380588006,0.19043665664193532,0.2934227974389986
0.09265764484546424,0.024963473248215462,0.1898072493922922,0.29327721279522856
0.09196879146422698,0.02460616983790742,0.18918094833101562,0.2931316605099459
0.09128656594349371,0.02425434085527145,0.18855773094909578,0.29298615284151797
0.09061089493662633,0.023907895238731602,0.18793757554181245,0.29284070153764286
0.08994170593745549,0.023566743552563385,0.18732046116545908,0.29269531785709013
0.08927892726957554,0.023230797955340776,0.18670636759610226,0.29255001259047675
0.0886224880759186,0.022899972169073357,0.18609527529028602,0.2924047960801157
0.08797231830858593,0.022574181449013686,0.18548716534760046,0.29225967823898
0.08732834871892847,0.02225334255411837,0.18488201947503047,0.2921146685688256
0.08669051084785712,0.021941290658419654,0.18427981995301113,0.2919697761775071
0.08605873701637551,0.02193228938617675,0.1836805496031133,0.29182500979552295
0.08543296031631886,0.021923277918834194,0.18308419175728896,0.2916803777918292
0.08481311460128971,0.02191424945171394,0.18249073022860895,0.29153588818894915
0.08419913447778105,0.021905197666513554,0.18190014928342646,0.29139154867741623
0.08359095529647509,0.021896116707226798,0.18131243361490745,0.2912473666295744
0.0829885131437092,0.02188700115711395,0.18072756831786152,0.2911033491127706
0.08239174483310135,0.021877846016683855,0.18014553886482454,0.29095950290196226
0.08180058789732558,0.021868646682641102,0.1795663310833291,0.29081583449177106
0.08121498058003146,0.021859398927760565,0.17898993113431816,0.2906723501080021
0.08063486182789881,0.021850098881650903,0.17841632549164443,0.2905290557186567
0.080060171282823,0.021840743012368602,0.17784550092261386,0.29038595704446246
0.07949084927422279,0.021831328108847692,0.17727744446951976,0.2902430595689377
0.07892683681146839,0.021821851264110514,0.1767121434321306,0.290100368548016
0.07836807557641745,0.021812309859228995,0.17614958535108172,0.28995788901924924
0.07781450791606426,0.021802701548001124,0.17558975799213594,0.2898156258106057
0.07726607683528741,0.02179302424231666,0.1750326493312715,0.2896735835488855
0.07672272598969787,0.02178327609818098,0.17447824754055885,0.2895317666677675
0.0761843996785812,0.0217734555023682,0.17392654097479476,0.2893901794155077
0.07565104283793089,0.02176356105968169,0.17337751815885216,0.2892488258622984
0.07512260103356894,0.021753591580790155,0.17283116777572194,0.2891077099073125
0.07459902045434907,0.021743546070620234,0.17228747865520755,0.2889668352854383
0.07408024790544315,0.021733423717279376,0.17174643976324666,0.2888262055737256
0.07356623080170371,0.02172322388148673,0.1712080401918279,0.2886858241975505
