jointFR1,jointFR2,jointFR3,force
5.884039290661292,5.550730185375184,7.222468204148708,6.143147287146777
5.558572857737132,5.245667153559985,6.816144080096834,5.801177481779348
5.250654161946981,4.957017979808617,6.431820932225869,5.477692793739209
4.959345697462712,4.683906450159895,6.076007972106309,5.171704513600216
4.683759876252127,4.425502989346695,5.7822312197832675,4.882276602272476
4.423056373707179,4.181022181141102,5.501966384545006,4.608522889669627
4.176439615340075,3.9497204204738803,5.234602889608369,4.3496044222670305
3.94315639705193,3.7308936903270085,4.979557567051819,4.104726951639821
3.722493631876973,3.523875456769963,4.73627343046267,3.8731385564899616
3.5137762164822783,3.3280346758626127,4.504218502495311,3.65412739106938
3.316365011060066,3.142773906481058,4.292180898639964,3.4470195532831687
3.1296549265875555,2.9675275234385348,4.097254847533581,3.251177066113545
2.953073113749544,2.8017600255724426,3.9106572973999505,3.0659959663431553
2.7860772481218676,2.6449644337516984,3.732037069273219,2.8909044948762173
2.628153906500984,2.4966607740266396,3.5610577429638552,2.725361383258866
2.4788170295365335,2.3563946413975927,3.3973970373904665,2.5688542312869203
2.3376064660811364,2.223735839918466,3.2407462169216856,2.4208979708608127
2.207394403328497,2.0982770950794,3.090809522636476,2.2810334115046653
2.113445764461587,1.9796328346279095,2.9473036274570115,2.1488258632098765
2.0234563372851437,1.8747457787064161,2.809957114152179,2.0238638324942295
1.9372596604313024,1.79363446287792,2.684562259949418,1.916114673478264
1.8546962644565774,1.7159545312310094,2.6178383527636813,1.8312888458962528
1.7756133782974497,1.64279514621845,2.5660078714014842,1.7500656403393098
1.6998646480471515,1.5727427936500173,2.5153924034511004,1.6722944797618957
1.62730986753652,1.5056626852944202,2.4659570169850857,1.597831039953953
1.557814720223507,1.4414294454651566,2.417667979759006,1.5265369905386645
1.4912505319167273,1.3799229723428186,2.370492712965639,1.4582797466903286
1.4274940338783337,1.321028216416914,2.3243997468857778,1.3929322311286187
1.3664271358706042,1.264634968230098,2.279358678355468,1.3303726459638592
1.3079367087288993,1.2106376550343254,2.235340129972927,1.2704842539855794
1.2519143760611668,1.1589351459848516,2.1923157109717053,1.2131551690034823
1.1982563146909528,1.1094305655136838,2.1502579796897816,1.1582781548661625
1.1468630634769474,1.0620311145391523,2.1091404075673092,1.1057504327984105
1.110419795078737,1.0166478991826555,2.0689373446086026,1.0702230780896915
1.0839392269647483,0.9731957666774653,2.029623986246724,1.050655582292617
1.0581917118942843,0.93159314816768,1.9911763415516552,1.031594081299202
1.0331535238761735,0.8917619081081078,1.9535712027255785,1.0130218166383487
1.0088017984143187,0.853627199987981,1.9167861158311936,0.9949226864218916
0.9851144990666421,0.817117328113049,1.88079935270132,0.9772812171022789
0.9620703853466144,0.7821636151917291,1.8455898839802427,0.9600825365031287
0.9396489819125928,0.7487002754816714,1.8111373532493724,0.9433123480639156
0.9178305489924654,0.7213700731887807,1.7774220521918234,0.926956906242768
0.8965960539932317,0.7047409909245432,1.7444248967524465,0.9110029930240002
0.8759271442472414,0.6885732121156625,1.7121274042517085,0.8954378954794882
0.8558061208487865,0.672851695209763,1.6805116714135877,0.8802493843353744
0.8362159135366386,0.6575619483953998,1.6495603532693486,0.8654256934978678
0.8171400565799514,0.6426900081701237,1.619256642900692,0.8509555004940446
0.7985626656267085,0.6282224187711236,1.5895842519873196,0.8368279077856297
0.7804684154755396,0.6141462124332391,1.5605273921254532,0.8230324249156908
0.7628425187333793,0.6004488904405394,1.5320707568852652,0.8095589514500454
0.7456707053229424,0.5871184049390821,1.5042275907248015,0.7963977606769646
0.728939202805494,0.5741431414797993,1.4793927673497074,0.7835394840304506
0.712634717485797,0.5615119022616946,1.4550539061530106,0.7709750962039824
0.6967444162674803,0.5492138900468301,1.4311994496923632,0.7586959009231652
0.6812559092283725,0.5372386927196754,1.4078181598893629,0.7466935173471816
0.6661572328865988,0.525576268464582,1.3848991076842907,0.7349598670703521
0.6514368341294253,0.5142169315361879,1.3624316630664708,0.7234871616964321
0.6370835547779943,0.503151338598604,1.3404054854656928,0.7122678909595574
0.623086616762186,0.4923704756102214,1.3188105144907032,0.7012948113669432
0.609435607880907,0.48186564523193776,1.2976369610013334,0.6905609353396157
0.596120468124101,0.4716284547375038,1.2768752985013871,0.6800595208285394
0.5831314765337668,0.46165080440556594,1.2565162548399038,0.6697840613845568
0.570459238582187,0.4519248763738214,1.2365508042089268,0.6597282766615598
0.5580946740464605,0.4424431239365141,1.2169701594263693,0.6498861033332574
0.5460290053592987,0.4331982612672499,1.197765764493036,0.6402516864048183
0.5342537464168537,0.4241832535498655,1.1789292874132777,0.6308193709015278
0.5227606918251394,0.4153913075007887,1.1604526132692097,0.6215836939174254
0.5115419065673581,0.4068158622670064,1.1423278375387822,0.6125393770076736
0.5005897160751663,0.39845058068440353,1.1245472596484123,0.6036813189091604
0.4898966966876152,0.3902893408818707,1.1071033767512435,0.5950045885745521
0.4794556664821511,0.3823262282171631,1.0899888777224531,0.5865044185056879
0.469259676462712,0.37455552753108645,1.0731966373633712,0.5781761983728698
0.4593020020905638,0.36697171570710563,1.056719710806501,0.5700154689072032
0.44958631617927036,0.3595694545240422,1.0405513281138439,0.5620179160537517
0.44168892181965635,0.352343583789986,1.0246848890612372,0.5541793653738146
0.433947712738327,0.3452891147460674,1.009113958101692,0.5464957766851893
0.42635916482695835,0.338401223729188,0.9938322595010047,0.5389632389297768
0.4189198477229384,0.3316752460832436,0.9788336726391813,0.5315779652583831
0.4116264218645941,0.3251066703088249,0.9641122274714594,0.5243362883230411
0.4044756356513682,0.3186911324417677,0.9496621001429674,0.5172346557676014
0.3974643227049112,0.3124244106513323,0.9354776087512928,0.5102696259077854
0.390589399227214,0.30630242004916564,0.9215532092514569,0.5034378635922846
0.3838478614520663,0.3003212077005516,0.9078834914979979,0.4967361362368692
0.37723678318626785,0.2944769478298209,0.8944631754190953,0.49016131002385616
0.37075331343716883,0.28876593721210686,0.881287107317857,0.4837103462596106
0.3643946741232453,0.2831845907439553,0.8683502562960534,0.47738029788310754
0.35815815786455124,0.2777294371856165,0.8556477107958329,0.4711683061188899
0.35204112585001285,0.2723971150681149,0.8431746752550464,0.46507159726806246
0.34604100577865243,0.2671843687585016,0.8309264668720555,0.459087479631252
0.34015528987194127,0.26208804467693825,0.8188985124760018,0.45321334055774004
0.33438153295459644,0.25710508765954243,0.8070863454986952,0.447446643615236
0.32871735060124113,0.25223253746115015,0.795485603044447,0.44178492587500867
0.32316041734644785,0.24746752539240924,0.7840920230542714,0.4362257953073379
0.31770846495578575,0.24280727108582956,0.7729014415610587,0.4307669282824698
0.31235928075558655,0.23824907938564488,0.7619097900324325,0.42540606717248225
0.307110706019229,0.23379033735654486,0.7511130927981395,0.4201410180496705
0.3019606344078366,0.22942851140653564,0.740507464558936,0.41496964847726653
0.2969070104633592,0.22516114451939118,0.7300891079740628,0.40988988538848736
0.2919478281520921,0.2209858535923228,0.7198543113244906,0.4048997130500937
0.28708112945676306,0.21690032687469207,0.7097994462492592,0.39999717110681055
0.2823050030153893,0.21290232150374988,0.699920965552302,0.3951803527031242
0.27761758280517856,0.20898966113354744,0.690215401077271,0.3904474026791276
0.2730170468698145,0.20516023365332836,0.6806793616479636,0.38579651583723573
0.26850161608853407,0.20141198899185664,0.67130953107204,0.3812259352767355
0.2640695529854622,0.19774293700427392,0.662102666205824,0.3767339507932672
0.2597191605777345,0.19415114543823186,0.6530555950780388,0.37231889734047047
0.25544878126099196,0.19063473797615849,0.6441652150704329,0.3679791535511452
0.25125679573088844,0.18719189235066103,0.635428491153327,0.36371314031539975
0.24714162193930322,0.18382083853017972,0.6268424541741695,0.35951931941337145
0.24310171408400344,0.18051985697212458,0.6184041991972742,0.3553961922002086
0.2391355616305496,0.17728727694084556,0.6101108838929903,0.3513422983411118
0.2352416883652808,0.17412147488788543,0.601959726974602,0.3473562145943228
0.23141865147826718,0.17102087289206858,0.5939480066813274,0.3434365536400499
0.22766504067515447,0.16798393715708682,0.5860730593058594,0.33958196295340387
0.22397947731686974,0.1650091765643278,0.5783322777649176,0.3357911237195035
0.22036061358619713,0.16209514127878255,0.5707231102113792,0.3320627497889944
0.21680713168026877,0.15924042140596584,0.5632430586865822,0.3283955866722987
0.21331774302805484,0.1564436456978514,0.5558896778114382,0.3247884105709886
0.20989118753197067,0.15370348030592285,0.548660573515084,0.32124002744474917
0.20652623283275096,0.1510186275794978,0.5415534017998012,0.3177492721124613
0.20322167359677695,0.1483878249075702,0.5345658675410097,0.3143150073859988
0.19997633082507238,0.14580984360248472,0.5276957233211721,0.31093612323540076
0.19678905118320944,0.14328348782381695,0.5209407682964962,0.30761153598413254
0.19365870635140303,0.14080759354091077,0.5142988470953569,0.3043401875332079
0.19058419239409108,0.13838102753257264,0.5077678487474031,0.3011210446129993
0.1875644291483303,0.1360026864224967,0.5013457056423514,0.2979530980616135
0.184598359630359,0.13367149574903692,0.4950303925174968,0.2948353621287561
0.18168494945970648,0.1313864090680098,0.4888199254730321,0.29176687380405975
0.1788231863002463,0.12914640708726288,0.4827123610142552,0.2887466921688927
0.17601207931762047,0.12695049683178294,0.4767057951198306,0.28577389777070633
0.17325065865247677,0.12479771083818325,0.4707983623352541,0.2828475920190217
0.17053797490898517,0.12268710637744107,0.4649882348907328,0.2799668966021957
0.16787309865812045,0.12061776470481489,0.4592736218426954,0.2771309529241417
0.16525511995521336,0.11858879033590053,0.45365276823820944,0.2743389215602154
0.16268314787129506,0.116599310347832,0.44812395430156493,0.2715899817315124
0.1601563100377747,0.114648473704685,0.4426854946423484,0.268883330796855
0.15767375220400895,0.11273545060614754,0.43733573748432364,0.26621818376177625
0.155234637807335,0.11085943185859926,0.43207306391449785,0.263593772803837
0.15283814755516,0.1090196282677327,0.42689588715173477,0.261009346813648
0.15048347901870918,0.10721527005193043,0.4218026518343063,0.2584641709509825
0.1481698462380528,0.10544560627558874,0.41679183332583913,0.255957526215403
0.14589647933804506,0.10370990430167004,0.4118619370390524,0.2534887090308457
0.1436626241548213,0.10200744926274052,0.40701149777678713,0.25105703084362413
0.14146754187251304,0.10033754354982027,0.4022390790897814,0.24866181773334842
0.13931050866985167,0.0986995063183671,0.3975432726506969,0.24630241003626518
0.1371908153763462,0.09709267301076985,0.3929226976439202,0.2439781619805519
0.13510776713772774,0.09551639489473396,0.3883760001706513,0.24168844133311582
0.13306068309036848,0.09397003861696673,0.3839018526688456,0.23943262905746665
0.1310488960443906,0.09245298577160643,0.3794989533475641,0.23721011898225142
0.12907175217519223,0.09096463248284459,0.37516602563530466,0.23502031748005378
0.12712861072312628,0.08950438900122148,0.37090181764191876,0.2328626431560823
0.12521884370107889,0.08807167931309767,0.36670510163370795,0.2307365265463801
0.12334183560970093,0.0866659407628173,0.36257467352132844,0.22864140982521025
0.12149698316005711,0.08528662368709305,0.3585093523601235,0.22657674652128232
0.11968369500346365,0.08393319106118535,0.3545079798625388,0.22454200124249785
0.11790139146829483,0.08260511815642912,0.35056941992228396,0.22253664940890944
0.11614950430354565,0.08130189220870843,0.3466925581498772,0.2205601769935976
0.11442747642894532,0.0800230120974802,0.3428763014192864,0.21861208027118176
0.11273476169142448,0.07876798803497198,0.3391195774253304,0.2166918655736957
0.11107082462774341,0.07753634126518028,0.3354213342515624,0.2147990490535653
0.10943514023309894,0.07632760377232262,0.33178053994831336,0.21293315645343874
0.10782719373552976,0.07514131799841306,0.32819618212064783,0.21109372288263056
0.10624648037594972,0.07397703656962107,0.32466726752593367,0.20928029259994738
0.1046925051936422,0.07283432203111828,0.3211928216807789,0.20749241880267483
0.10316478281705535,0.07171274659010196,0.31777188847706217,0.20572966342151372
0.10166283725974307,0.07061189186671002,0.3144035298068386,0.2039915969212607
0.10018620172130219,0.06953134865255417,0.3110868251958423,0.2022777981070375
0.09873441839316084,0.06847071667659388,0.3078208714453967,0.20058785393588088
0.09730703826907854,0.06742960437811052,0.3046047822824689,0.19892135933351235
0.09590362096022259,0.06640762868651595,0.30143768801768367,0.1972779170161135
0.09452373451469014,0.06540441480777537,0.2983187352110581,0.19565713731693987
0.09316695524134987,0.0644195960172016,0.2952470863452801,0.19405863801761364
0.09183286753788095,0.0634528134584127,0.29222191950630805,0.19248204418393938
0.09052106372289118,0.06250371594823301,0.28924242807112055,0.19092698800609567
0.08923114387200035,0.06157195978733743,0.28630782040241276,0.18939310864305922
0.08796271565777813,0.06065720857644308,0.2834173195500791,0.18788005207112396
0.0867153941934297,0.0597591330378584,0.28057016295928516,0.18638747093638391
0.08548880188012575,0.05887741084221071,0.2777656021849826,0.1849150244110522
0.08428256825787678,0.05801172644017366,0.27500290261268323,0.1834623780534933
0.08309632985985504,0.05716177089902941,0.272281343185343,0.18202920367185227
0.08192973007006997,0.05632724174390408,0.2696002161362081,0.18061517919116687
0.08078241898430699,0.055507842803516116,0.26695882672745475,0.1792199885238529
0.07965405327424134,0.05470328406029262,0.26435649299449215,0.17784332144345952
0.07854429605464223,0.05391328150470731,0.2617925454957877,0.17648487346159095
0.07745281675358458,0.05313755699369738,0.25926632706806796,0.17514434570790033
0.0763792909855891,0.052375838113032924,0.25693772240355894,0.17382144481305786
0.07532340042761283,0.05162785804349884,0.2558041517428127,0.17251588279460744
0.07428483269781574,0.05089335543077805,0.25467900351277595,0.17122737694561985
0.07326328123703048,0.05017207425890108,0.25356215731283016,0.16995564972606322
0.07225844519286524,0.049463763727161325,0.2524534969563692,0.16870042865680518
0.07127002930637137,0.04876817813037271,0.25135291027717344,0.16746144621617315
0.07029774380120972,0.048085076742369615,0.25026028894456087,0.16623843973899297
0.06934130427525181,0.047414223702642644,0.24917552828692746,0.16503115131803736
0.06840043159455336,0.046755387906011636,0.24809852712331626,0.1638393277078112
0.0674748517896403,0.046108342895237964,0.2470291876026529,0.16266272023060746
0.0665642959540486,0.04547286675648737,0.24596741505032083,0.1615010846847678
0.06566850014506129,0.044848742017549126,0.24491311782174674,0.16035418125508555
0.06478720528658767,0.04423575554872938,0.24386620716269203,0.1592217744252898
0.06392015707413133,0.04363369846633203,0.24282659707595133,0.15810363289255183
0.0630671058817952,0.043042366038650526,0.24179420419418007,0.1569995294839574
0.06222780667127328,0.042461557594391575,0.24076894765857615,0.15590924107488977
0.061402018902780235,0.04189107643345441,0.23975074900315874,0.1548325485092714
0.06058950644787168,0.04133072973999807,0.2387395320443979,0.1537692365216116
0.0597900375041087,0.04078032849772212,0.23773522277595638,0.15271909366081252
0.05900338451152243,0.040239687407297164,0.23673774926831537,0.15168191221568406
0.0582293240708346,0.03970862480588022,0.2357470415730727,0.15065748814212296
0.05746763686339274,0.03918696258865095,0.23476303163169843,0.14964562099190942
0.05671810757277822,0.03867452613230926,0.23378565318855604,0.14864611384308074
0.05598052480804763,0.038171144220476017,0.23281484170799338,0.14765877323183746
0.05525468102856912,0.037676648970942805,0.2318505342953261,0.14668340908594316
0.05454037247041538,0.03719087576471042,0.23089266962153698,0.14571983465957863
0.05383739907427726,0.036713663176770384,0.22994118785152606,0.14476786646961118
0.053145564414862234,0.036244852908576874,0.22899603057575058,0.1438273242332444
0.052464675631742966,0.03578428972215569,0.22805714074510441,0.14289803080701127
0.05179454336162273,0.03533182137580981,0.22712446260888952,0.14197981212707683
0.05113498167198455,0.034887298561371294,0.2261979416557438,0.14107249715081674
0.05048580799609235,0.034450574842956716,0.2252775245573837,0.14017591779964012
0.04984684306931347,0.03402150659718267,0.22436315911504567,0.13928990890302398
0.04921791086673172,0.033599952954801726,0.22345479420849368,0.13841430814373068
0.04859883854202231,0.03318577574371795,0.22255237974748332,0.13754895600417752
0.04798945636755966,0.032778839433341755,0.22165586662556858,0.1366936957139302
0.047389597675730616,0.03237901108025071,0.22076520667614186,0.13584837319829346
0.04679909880142551,0.03198616027511536,0.2198803526306108,0.13501283702797065
0.04621779902568138,0.031600159090859004,0.21900125807861048,0.13418693836976736
0.04564554052045104,0.031220882032016284,0.21812787743015782,0.13337053093831283
0.04508216829447348,0.030848205985256172,0.21726016587966046,0.1325634709487753
0.044527530140220886,0.03048201017104185,0.21639807937169442,0.1317656170705476
0.04398147658189868,0.030122176096392173,0.21554157456846812,0.13097683038187924
0.043443860824475676,0.029768587508716582,0.214690608818896,0.13019697432543234
0.04291453870372123,0.029421130350698654,0.21384514012920652,0.12942591466474143
0.04239336863722841,0.029079692716192984,0.21300512713501352,0.12866351944155346
0.041880211576400324,0.028744164807115558,0.2121705290747824,0.12790965893402914
0.041374930959380406,0.02841443889129619,0.21134130576462762,0.12716420561578462
0.04087739266490498,0.02809040926127282,0.21051741757437714,0.12642703411575495
0.04038746496705885,0.02777197219399785,0.20969882540484508,0.12569802117886014
0.039905018490914525,0.027459025911436563,0.2088854906662576,0.12497704562745435
0.039429926169036324,0.02715147054203293,0.20807737525777514,0.12426398832354289
0.03896206319883034,0.026849208083021547,0.20727444154806096,0.12355873213174592
0.03850130700072319,0.026552142363563458,0.20647665235684487,0.1228611618829963
0.038047537177151224,0.026260179008683326,0.20568397093743518,0.122171164338951
0.037600635472343776,0.025973225403992106,0.2048963609601373,0.1214886281571036
0.03716048573288311,0.025691190661168595,0.20411378649652856,0.1208134438565795
0.036726973869025285,0.0254139855841905,0.20333621200455476,0.12014550378460023
0.03629998781676584,0.025141522636283775,0.2025636023144044,0.119484702083602
0.035879417500634773,0.024873715907585026,0.2017959226151278,0.11883093465899379
0.03546515479720553,0.024610481083489177,0.20103313844195791,0.11818409914754058
0.035097254413713024,0.024351735413674025,0.20027521566430684,0.11754409488635871
0.03486722864548826,0.02409739768177621,0.1995221204743991,0.11691082288251073
0.03463933484639392,0.02384738817571269,0.19877381937651184,0.11628418578318471
0.034413548579923375,0.023601628658622198,0.19803027917679672,0.11566408784644776
0.03418984582135815,0.023360042340419607,0.19729146697364452,0.1150504349125595
0.03396820294618097,0.023122553849942884,0.19655735014857822,0.11444313437583516
0.033748596718930504,0.02288908920768279,0.1958278963576383,0.11384209515704552
0.03353100428247936,0.02265957579907857,0.1951030735232393,0.11324722767634242
0.033315403147717804,0.02243394234836643,0.1943828498264759,0.11265844382669954
0.03310177118362624,0.022212118892969923,0.19366719369985286,0.11207565694785632
0.032890086607720234,0.02199403675841638,0.19295607382041746,0.11149878180075605
