jointFR1,jointFR2,jointFR3,force
6.096103067995473,5.75855840866833,7.488446481275532,6.150615806786958
5.757187731782951,5.441382595430005,7.061467273925072,5.808380918584277
5.436568617094764,5.141287226007441,6.661373111181815,5.484631193089847
5.133268005157411,4.857360287344288,6.2842003262231945,5.178378547907931
4.84636023373734,4.588738311512415,5.927523641907967,4.8886875160669785
4.574968929253231,4.334603794758406,5.5902444687563415,4.614672448221594
4.318264385982859,4.09418275370636,5.271322795813198,4.3554948635443
4.075461084549132,3.866742411429624,4.996576070240531,4.1103609414066415
3.845815342285034,3.651589006491303,4.755110981676319,3.878519146369028
3.6286230884704063,3.448065718419886,4.5246313421777025,3.6592579793961115
3.4232177578057206,3.255550703433639,4.304647562706352,3.4519038485907503
3.228968295840586,3.0734552345558086,4.094691706132233,3.255819053096014
3.0452772704083566,2.901221940574154,3.8943165325009037,3.0703998741520753
2.87157908343437,2.738323138592804,3.7030945863510962,2.895074767614237
2.707338277784527,2.584259255203607,3.5206173242313885,2.7293026525409445
2.5520479341042797,2.4385573315682487,3.346494280646233,2.572571290746987
2.4052281528663872,2.300769607952586,3.210500959996004,2.4243957524883197
2.2664246170998714,2.1704721834915874,3.0965090570083333,2.2843169637017855
2.135207231513095,2.047263747187472,2.9864620270284754,2.151900330466102
2.011168833951704,1.9307643763560696,2.8802229853191674,2.0311572752340035
1.8939239753478103,1.820614398937512,2.777659812364513,1.9316820254821132
1.7831077645210076,1.7164733162777492,2.6786449876562837,1.8368045820258632
1.6783747743851838,1.618018783167691,2.58305542928534,1.7463168271930591
1.6059777075579975,1.5249456420975147,2.5154046728033754,1.660019994769011
1.5490125060011162,1.4480852591651772,2.4660782385494513,1.5777242509688882
1.4940568768788265,1.380391425702543,2.4178850283978037,1.4992482941659415
1.441040278222378,1.3279684359620918,2.3707940432802896,1.4244189725363758
1.3898946370628489,1.280613737752965,2.324775271613941,1.3563825109637462
1.3405542631319847,1.234930282857017,2.279799654249644,1.3202881182262358
1.29295576557809,1.1908594348441222,2.2358390507520336,1.2855283313088526
1.2470379725916318,1.1483446091044154,2.192866206957941,1.2520484179736642
1.2027418538388879,1.107331201128022,2.1508547237628606,1.2197959980517905
1.1600104456055358,1.0677665172910416,2.109779027086958,1.1887209401753855
1.1187887785554997,1.0295997080601935,2.0696143389741013,1.1587752630882027
1.0790238080136842,0.992781703531588,2.033482603904101,1.1299130413308003
1.0442057251179162,0.9572651512220409,2.0016281920429866,1.102090315105607
1.0248596313567084,0.9230043560342154,1.970325631177788,1.0752650041356964
1.005898214989018,0.8899552223196059,1.9395644418491271,1.0493968253394805
0.9873121854487615,0.8580751979660601,1.9093343764571713,1.024447214151429
0.9690925543781065,0.8273232204390741,1.8796254127389902,1.000379249326519
0.9512306228323476,0.7976596647085936,1.8504277474843542,0.9771575810733678
0.9337179691095545,0.7690462929954183,1.8217317904794579,0.9547483623678921
0.916546437172712,0.7414462062736276,1.7935281586685807,0.9331191833059813
0.8997081256337751,0.7148237974676619,1.7658076705241639,0.9122390083599622
0.8831953772706814,0.6891447062848359,1.7385613406162599,0.8920781164096694
0.8670007690498661,0.6643757756261406,1.7117803743727316,0.8726080434247041
0.8511171026282942,0.6404850095201746,1.6854561630220035,0.8538015276799663
0.8355373953103687,0.6276148069402434,1.6595802787105578,0.8356324573918003
0.8202548714363804,0.6164741968688188,1.6341444697877407,0.8180758206671227
0.8052629541803941,0.6055485229043094,1.6091406562507997,0.801107657662703
0.7905552577366157,0.594832821365239,1.5845609253434103,0.7847050148563467
0.7761255798743891,0.5843222821689118,1.5603975273012716,0.7688459013361172
0.7619678948430233,0.5740122425308396,1.5366428712386513,0.7535092470179144
0.748076346608618,0.5638981809679957,1.5132895211700514,0.7386748627057312
0.7344452424060086,0.553975711590245,1.4903301921614402,0.7243234019127194
0.7210690465898206,0.5442405786651392,1.4677577466057565,0.7104363243648587
0.7079423747694745,0.5346886514420445,1.4455651906176374,0.6969958611124951
0.6950599882137665,0.5253159192222969,1.4237456705425626,0.683984981178358
0.6824167885114074,0.5161184866627844,1.4022924695758203,0.6713873596738379
0.6700078124746108,0.5070925693010294,1.3811990044869251,0.6591873473183518
0.6578282272734997,0.498234489290442,1.36045882244531,0.6473699412995249
0.6458733257897349,0.48954067133504686,1.3400655979433145,0.6359207574146933
0.6341385221783776,0.48100763881351205,1.320013129812664,0.6248260034368823
0.6226193476275677,0.4726320100828707,1.3002953383308156,0.6140724536509486
0.6113114463061455,0.4644104949528044,1.2809062624137146,0.6036474245079892
0.6002105714898581,0.4563398913218605,1.2618400568916446,0.5935387513484398
0.5893125818572742,0.44841708196740715,1.2430909898650286,0.583734766146484
0.5786134379470017,0.440639031481567,1.2246534401371578,0.5742242762305128
0.5681091987682245,0.4330027833457797,1.2065218947209688,0.5649965439363819
0.5577960185570084,0.4255054571370187,1.1886909464171256,0.5560412671521461
0.5476701436711987,0.41814424585906207,1.1711552914607672,0.5473485607147854
0.5377279096171169,0.4109164133925518,1.1539097272344163,0.538908938621198
0.5279657382016086,0.403819292057908,1.136949150044635,0.5307132970174099
0.5183801348033305,0.3968502802854744,1.120268552960141,0.5227528979315638
0.5089676857574819,0.39000684038756583,1.103863023709184,0.5150193537177704
0.499725055848479,0.3832864964273571,1.0877277426340721,0.5075046121793818
0.4906489859053624,0.376686832179821,1.0718579807008397,0.5002009423416356
0.4817362904949872,0.37020548918018426,1.0562490975621381,0.4931009208449609
0.4729838557083079,0.3638401648555777,1.040896539671496,0.4861974189315147
0.46438863703530553,0.3575886107358097,1.0257958384471852,0.47948358999873064
0.4559476573243328,0.35144863073938515,1.0109426084840074,0.4729528576948352
0.447658004821877,0.3454180795310986,0.9963325458113719,0.46659890453239605
0.4395168312889322,0.3394948609477221,0.9819614261961213,0.4604156609970319
0.4315213501903766,0.333676926488482,0.9678251034886094,0.45439729512943067
0.42366883495393537,0.3279622738671967,0.9539195080106115,0.44853820255979004
0.4159566172954732,0.32234894562310534,0.9402406449836915,0.4428329969747309
0.40838208560753836,0.316835027787563,0.9267845929967216,0.4372765009976096
0.40094268340822886,0.3114186486039414,0.9135475025112854,0.4318637374640106
0.3936359078476023,0.3060979772981893,0.9005255944037727,0.42658992107500726
0.3864593082689902,0.3008712228976559,0.8877151585429801,0.42145045041155066
0.3794104848227147,0.29573663309588727,0.8751125524021341,0.41644090029408654
0.372487087129823,0.2906924931612388,0.8627141997042378,0.41155701447220605
0.365686812993589,0.28573712488723857,0.8505165890997377,0.4067946986298103
0.359007407156627,0.2808688855827647,0.8385162728755065,0.40215001369191183
0.3524466601015858,0.27608616710017253,0.8267098656941998,0.39761916941981434
0.3460024068934849,0.2713873948996276,0.8150940433630722,0.3931985182819976
0.339672526061851,0.26677102714796386,0.8036655416313745,0.3888845495885966
0.33345493852091,0.2622355538504971,0.7924211550154878,0.38467388387790424
0.3273476065261712,0.25777949601428174,0.7813577356509838,0.3805632675438356
0.3213485326658223,0.25340140484138507,0.7704721921708233,0.3765495676937834
0.3154557588854399,0.2490998609508286,0.7597614886089448,0.3726297672267651
0.3097105674110114,0.24487347362790357,0.7492226433285214,0.36880096012220687
0.3048519483291185,0.240720880099641,0.7388527279741701,0.3650603469301359
0.3000745543466267,0.23664074483527575,0.7286488664474635,0.3614052304539676
0.2953769757636121,0.23263175887059584,0.7186082339050794,0.35783301161745396
0.29075782847388154,0.22869263915513915,0.7087280557789644,0.3543411855077467
0.2862157534587547,0.22482212792122802,0.6990056068179047,0.3509273375868682
0.2817494162926534,0.22101899207390696,0.6894382101499428,0.34758914006424063
0.2773575066601471,0.2172820226008748,0.680023236365044,0.34432434842323517
0.2730387378841169,0.21361003400155953,0.6707581026175009,0.3411307980950239
0.2687918464647082,0.210001863734525,0.6616402717475267,0.3380064012733079
0.2646155916287632,0.2064563716824276,0.6526672514215612,0.3349491438637837
0.26050875488942676,0.20297243963379474,0.6438365932907697,0.33195708256247664
0.25647013961563736,0.19954897078092448,0.6351458921672801,0.3290283420573326
0.25249857061122233,0.19618488923323552,0.6265927852177013,0.32616111234770656
0.24859289370332688,0.19287913954543867,0.6181749511734791,0.3233536461766211
0.24475197533991655,0.1896306862599244,0.609890109557653,0.320604256570897
0.24097470219610456,0.18643851346279583,0.6017360199276225,0.3179113144844727
0.23725998078905763,0.18330162435299469,0.5937104811335057,0.31527324654043376
0.2336067371012528,0.18021904082400642,0.585811330591701,0.31268853286747744
0.23001391621185419,0.17718980305764354,0.5780364435732999,0.3101557050267162
0.22648048193599746,0.17421296912944195,0.5703837325069578,0.30767334402491464
0.2230054164717682,0.17128761462520903,0.5628511462958983,0.3052400784104183
0.21958772005467508,0.16841283226831072,0.5554366696486923,0.30285458244820085
0.21622641061941905,0.1655877315572738,0.5481383224234926,0.30051557437061616
0.2129205234687716,0.1628114384133229,0.5409541589853957,0.2982218147005833
0.20966911094937896,0.16008309483747962,0.5338822675766288,0.2959721046440888
0.20647124213431428,0.1574018585768674,0.5269207696992553,0.2937652845490142
0.20332600251220873,0.15476690279988525,0.5200678195101094,0.29160023242743877
0.20023249368279497,0.15217741577992794,0.513321603227674,0.28947586253868784
0.1971898330587034,0.14963260058734695,0.5066803385506309,0.287391124030515
0.19419715357335712,0.14713167478935385,0.5001422740878085,0.2853449996359283
0.1912536033948139,0.1446738701575886,0.49370568879928345,0.2833365044232692
0.18835834564541254,0.1422584323830859,0.4873688914483625,0.2813646845972696
0.1855105581270805,0.13988462079838038,0.48113022006421446,0.2794286163489002
0.18270943305216883,0.13755170810650874,0.4749880414149128,0.2775274047519306
0.17995417677968045,0.13525898011667137,0.46894075049065487,0.2756601827042026
0.17724400955676545,0.13300573548633632,0.46298676999692945,0.27382610991171225
0.1745781652653577,0.13079128546956098,0.45712454985742546,0.27202437191367573
0.17195589117383414,0.12861495367134101,0.45135256672645063,0.2702541791468372
0.1693764476935783,0.12647607580777687,0.4456693235106757,0.26851476604734953
0.1668391081403357,0.12437399947187877,0.4400733488999804,0.26680539018863214
0.16434315850025077,0.12230808390482784,0.4345631969072219,0.2651253314536846
0.16188789720047875,0.12027769977252178,0.4291374464167226,0.2634738912403912
0.15947263488426835,0.11828222894724005,0.4237947007413072,0.26185039169842733
0.15709669419041442,0.1163210642942708,0.4185335871876821,0.260254174996429
0.15475940953698358,0.11439360946334765,0.4133527566300117,0.25868460261815257
0.1524601269092163,0.11249927868475063,0.40825088309149393,0.2571410546863982
0.1501982036515137,0.11063749656993482,0.4032266633337802,0.2556229293135364
0.1479730082634191,0.10880769791654787,0.3982788164540785,0.25412964197751575
0.145783920199507,0.10700932751771075,0.39340608348976747,0.25266062492228375
0.14363032967309297,0.10524183997544201,0.3886072270303831,0.25121532658160006
0.14151163746368395,0.10350469951809771,0.3838810308368119,0.24979321102526286
0.13942725472808645,0.10179737982172277,0.37922629946754927,0.24839375742681305
0.13737660281509495,0.10011936383519748,0.3746418579118862,0.24701645955182142
0.13535911308368395,0.09847014360907891,0.3701265512298648,0.2456608252659013
0.13337422672462965,0.0968492201280301,0.3656792441988852,0.24432637606162927
0.13142139458548818,0.09525610314674582,0.3612988209668171,0.24301264660358743
0.12950007699886013,0.09369031102927561,0.35698418471149296,0.24171918429077857
0.12760974361387276,0.09215137059165757,0.35273425730644914,0.24044554883569558
0.12574987323081238,0.09063881694777232,0.3485479789927919,0.23919131185935888
0.12391995363884209,0.08915219335833668,0.3444243080570686,0.2379560565016629
0.12211948145674051,0.08769105108295294,0.34036222051502696,0.23673937704640413
0.12034796197659996,0.08625494923513788,0.3363607098011383,0.23554087856038708
0.11860490901042353,0.08484345464025345,0.3324187864637793,0.23436017654603272
0.11688984473956088,0.08345614169627114,0.3285354778659537,0.2331968966069377
0.11520229956692672,0.08209259223729315,0.32470982789145597,0.23205067412585467
0.11354181197194418,0.08075239539977075,0.32094089665635805,0.23092115395459098
0.11190792836815901,0.0794351474913425,0.31722776022572896,0.22980799011533967
0.11030020296347073,0.0781404518622435,0.31356951033547187,0.22871084551298035
0.10871819762292831,0.07686791877921273,0.3099652541191924,0.22762939165790594
0.1071614817340393,0.07561716530184437,0.30641411383999273,0.22656330839895192
0.10562963207454257,0.07438781516132331,0.30291522662709847,0.2255122836660195
0.10412223268259554,0.07317949864149409,0.29946774421723177,0.22447601322200575
0.10263887472932884,0.07199185246220285,0.2960708327006254,0.2234542004236658
0.10117915639372124,0.0708245196648637,0.29272367227160845,0.2224465559910516
0.09974268273974961,0.06967714950019976,0.28942545698365896,0.2214527977851847
0.09832906559576964,0.06854939731811083,0.286175394508853,0.22047265059363544
0.09693792343608337,0.0674409244596127,0.2829727059016087,0.21950584592369607
0.09556888126465166,0.06635139815081414,0.27981662536667096,0.21855212180284542
0.09422157050090933,0.06528049139887482,0.27670640003122715,0.2176112225862199
0.09289562886764302,0.06422788288990944,0.2736412897210989,0.21668289877081273
0.09159070028089164,0.06319325688879429,0.2706205667409185,0.21576690681613908
0.09030643474183062,0.062176303140829,0.26764351565822597,0.2148630089711137
0.0890424882306021,0.06117671677522252,0.26470943309140393,0.21397097310689725
0.08779852260205355,0.06019419821036165,0.2618176275013884,0.21309057255548194
0.08657420548334889,0.059228453060819475,0.258967418987075,0.21222158595379034
0.085369210173416,0.05827919204607568,0.25615813908436236,0.21136379709307768
0.08418321554419626,0.057346130900907344,0.2533891305687488,0.21051699477342972
0.08301590594366151,0.05642899028741688,0.2506597472614418,0.2096809726631628
0.0818669711005656,0.05552749570866494,0.24796935383888985,0.20885552916293745
0.08073610603089725,0.05464137742387315,0.24531732564568842,0.2080404672744048
0.07962301094600287,0.053770370365168574,0.24270304851078928,0.20723559447321352
0.07852739116234743,0.052914214055834075,0.24012591856696353,0.20644072258621315
0.07744895701288301,0.05207265253003668,0.23758534207344373,0.20565566767269294
0.07638742375999505,0.05124543425400613,0.23508073524170214,0.204880249909505
0.07534251150999652,0.05043231204863163,0.23261152406429453,0.20411429347992643
0.07431394512914173,0.049633043013450284,0.23017714414671597,0.20335762646611957
0.073301454161131,0.04884738845200015,0.22777704054223036,0.2026100807450566
0.07230477274607887,0.04807511379851026,0.22541066758958506,0.20187149188777911
0.0713236395409187,0.0473159885459033,0.2230774887535989,0.20114169906187016
0.07035779764121712,0.04656978617508162,0.220776976468529,0.2004205449370193
0.0694069945043721,0.04583628408547763,0.21850861198421523,0.19970787559356698
0.0684709818741696,0.04511526352683898,0.21627188521489504,0.1990035404339201
0.0675495157066733,0.04440650953222708,0.2140662945906857,0.19830739209673276
0.06664235609742335,0.04370981085220621,0.21189134691167522,0.19761928637375253
0.06574926720991991,0.04302495989020011,0.2097465572045485,0.19693908212923494
0.06487001720536806,0.04235175263899377,0.20763144858173965,0.19626664122183518
0.06400437817366089,0.041689988618357876,0.20554555210304604,0.19560182842888546
0.06315212606557839,0.04103947081377801,0.2034884066396574,0.19494451137297597
0.06231304062617979,0.0404000056162635,0.20145955874056098,0.19429456045075427
0.061486905329367667,0.039771402763219554,0.1994585625012879,0.1936518487638662
0.06067350731360255,0.03915347528036078,0.1974849794349416,0.1930162520519627
0.059872637318747174,0.03854603942464735,0.1955383783454805,0.19238764862769903
0.059084089624019745,0.037948914628224584,0.19361833520321703,0.1917659193136571
0.05830766198703628,0.037361923443348544,0.19172443302247122,0.19115094738112434
0.05754315558392227,0.03678489148827785,0.1898562617413717,0.19054261849066328
0.05679037495047434,0.03621764739411537,0.18801341810374272,0.1899408206344117
0.05604912792435285,0.035660022752581066,0.1861955055430471,0.1893454440800526
0.055319225588287155,0.03511185206470091,0.18440213406834816,0.1887563813163969
0.05460048221427491,0.034572972690393056,0.18263292015225852,0.18817352700052534
0.053892715208757755,0.03404322479893718,0.18088748662083343,0.18759677790643375
0.05319574505875581,0.03352245132030712,0.17916546254537535,0.18702603287513433
0.052509395278943764,0.033010497897357605,0.17746648313612345,0.1864611927661618
0.051833492359651546,0.032507212838842836,0.17579018963778226,0.1859021604104374
0.05161840903105471,0.0320124470732559,0.1741362292268691,0.1853488405644475
0.0514665770219511,0.03152605410347503,0.1725042549108382,0.18480113986569047
0.051316028460672715,0.031047889962196262,0.17089392542895365,0.18425896678935266
0.05116672447998057,0.03057781316814795,0.1693049051548845,0.18372223160617115
0.05101862771575821,0.030115684683063804,0.16773686400098153,0.18319084634144558
0.05087170225088084,0.02966136786940693,0.16618947732421563,0.18266472473516196
0.05072591356111108,0.029214728448828997,0.16466242583374724,0.18214378220319108
0.05058122846294975,0.02877563446135223,0.16315539550008507,0.18162793579952863
0.05043761506337236,0.028343956225260147,0.16166807746582745,0.18111710417954374
0.05029504271138425,0.027919566297687104,0.16020016795794234,0.18061120756420063
0.05015348195132963,0.027502339435891032,0.1587513682015642,0.18011016770522842
0.0500129044778928,0.027092152559199445,0.15732138433527632,0.17961390785120254
0.049873283092730834,0.02668888471161668,0.1559099273278639,0.17912235271451504
0.049734591662679954,0.02629241702507895,0.15451671289649993,0.1786354284392017
0.04959680507947981,0.02590263268334858,0.1531414614263431,0.17815306256960262
0.049459899220961466,0.02551941688653292,0.15178389789152713,0.17767518401982793
0.04932385091364704,0.0251426568162208,0.15044375177750724,0.17720172304400542
0.04918863789671087,0.02477224160122049,0.14912075700474547,0.1767326112072865
0.04905423878725363,0.02440806228389447,0.14781465185372422,0.17626778135758595
0.048920633046842556,0.02405001178707694,0.14652517889123162,0.1758071675980347
0.04878780094927295,0.023697984881562828,0.14525208489793417,0.17535070526012336
0.048655723549507014,0.02335187815416273,0.1439951207971859,0.17489833087751666
0.048524382653748345,0.02301158997630859,0.14275404158506966,0.17444998216051802
0.04839376079061141,0.022677020473205245,0.14152860626163744,0.17400559797116452
0.048263841183347124,0.02234807149351503,0.140318577763338,0.17356511829893687
0.048134607723086316,0.022024646579567042,0.13912372289660446,0.1731284842370611
0.04800604494306535,0.021706650938082217,0.13794381227258157,0.17269563795939058
0.04787813799379847,0.021393991411406466,0.13677862024298015,0.172266522697846
0.04775087261916273,0.021086576449238947,0.13562792483703,0.17184108272040224
0.04762423513336372,0.020784316080852572,0.13449150769951768,0.1714192633096026
0.047498212398749316,0.020487121887791837,0.13336915402988447,0.17100101074158783
0.047372791804442434,0.020194906977046345,0.13226065252237662,0.17058627226562403
