jointHR1,jointHR2,jointHR3,force
6.48213191451654,5.3334722680101665,7.820736077378147,6.150615806786958
6.119250146496835,5.040248087254396,7.3760137079502295,5.808380918584277
5.77600169742885,4.762789853507345,6.955465652585327,5.4846311930898795
5.451336549138591,4.500256362794073,6.557796922097603,5.1783785479078235
5.144260606352587,4.2518511727293165,6.181781537125461,4.888687516066634
4.853832722885878,4.016820223045113,5.826258857633134,4.61467244822119
4.579161885875535,3.794449582560749,5.490130107498339,4.355494863544366
4.319404549662201,3.5840633158771054,5.172355083820192,4.110360941408101
4.073762111368391,3.3850214634343176,4.871949041132218,3.878519146373157
3.8414785206445785,3.196718128909663,4.5879797412268575,3.659257979404478
3.6218380164542405,3.018579668252525,4.319564659791547,3.4519038486051103
3.4141629841476666,2.8500629749563213,4.065868341524005,3.255819053118195
3.2178119264330194,2.6906538564541385,3.826099895837057,3.0703998741838423
3.0321775421926964,2.539865496796518,3.6025720588698213,2.90700127024858
2.856684907414557,2.397237001026988,3.3917472621495985,2.787574910051254
2.6907897528120666,2.270302694738166,3.2469469022621436,2.6735120558532945
2.5339768329956374,2.164288437162305,3.1256865884627105,2.5645746915248435
2.3857583823304576,2.063045067231836,3.008738867932072,2.460535311164769
2.245672652874521,1.9663608185988086,2.8959520573401134,2.361176455903602
2.113282530035325,1.8740332760764558,2.7871797865841654,2.2662902711039115
1.988845503525627,1.7858689635332432,2.6838468206277635,2.175678083060199
1.9175448861619426,1.7018831440650084,2.587661566758608,2.0891499943398864
1.8487688015484636,1.6221329764255343,2.494808782976364,2.006524496944797
1.782428480068043,1.54599130091117,2.4051728320943537,1.9276281025086173
1.718438261608297,1.4732973749701705,2.358419628690091,1.8522949887803588
1.6567154868295424,1.40389756933362,2.312782005992006,1.7803666616768858
1.5971803922324403,1.3376450541443798,2.2680613506903837,1.7116916322190652
1.539756008892561,1.274399498917155,2.2242353814539793,1.6461251076963428
1.4843680647337352,1.214026785720565,2.18128254526823,1.583528696433326
1.4309448902165285,1.1563987349989597,2.1391819865205317,1.5237701255595597
1.379417327322503,1.1124668274265128,2.097913517596239,1.4667229712100316
1.3518595387305212,1.0730480630781518,2.0574575909073336,1.4122664006091366
1.3261701032787219,1.035020077143817,2.0177952722798262,1.3602849255149276
1.3009937010822066,0.9983340703454693,1.9827413405190633,1.3106681665234974
1.2763179323386526,0.9629429510725538,1.9512814335137518,1.2633106277553654
1.252130800771718,0.9288012756898043,1.9203701107877964,1.2181114814667737
1.228420696538623,0.8958651909310598,1.889996879560869,1.1749743621489335
1.2051763799725683,0.8640923783061767,1.8601514824845324,1.133807169697482
1.1823869661168664,0.8334420004506788,1.8308238908698562,1.0945218812528075
1.1600419100099222,0.8038746493502353,1.802004298168238,1.057034371329472
1.1381309926823424,0.7753522963744433,1.7736831136940914,1.0212642398697789
1.116644307829512,0.7478382440566749,1.7458509565786262,0.9871346478725748
1.0955722491248832,0.7212970795589679,1.7184986499444748,0.9545721602637561
1.0749054981410622,0.6956946297630646,1.6916172152914108,0.9235065956896236
1.0546350128475086,0.6709979179307648,1.6651978670838894,0.8938708829282573
1.0347520166552948,0.6471751218787567,1.6392320075315827,0.8656009236275165
1.0152479879809289,0.6241955336149851,1.6137112215545175,0.8386354610910823
0.9961146503027191,0.6020295203854928,1.5886272719248193,0.812915954846237
0.9773439626845376,0.5806484870824355,1.563972094577465,0.7883864607387855
0.9589281107431726,0.5607058670146544,1.5397377940827988,0.7670491191054987
0.940859498036697,0.5417915351638584,1.5159166392739212,0.7529432224452284
0.9239353055823669,0.5317791088761267,1.492501059022393,0.7391046338874246
0.9093282809739912,0.5224620907867213,1.4694836381559995,0.7255275254042121
0.894971929231105,0.5133237388931854,1.4468571135126267,0.712206235091038
0.8808616206424953,0.5043600046128142,1.4246143701245795,0.6991352607710937
0.8669928224577701,0.495566960569933,1.40274843752794,0.6863092538990927
0.8533610963641232,0.48694079577194305,1.3812524861918234,0.6737230137491456
0.8399620960490732,0.4784778110139435,1.3601198240626207,0.6613714818722894
0.82679156484554,0.470174414500265,1.3393438932185586,0.6492497368099778
0.8138453334557985,0.46202711767185545,1.3189182666301198,0.6373529890505515
0.8011193177510151,0.4540325312290395,1.2988366450220732,0.6256765762164063
0.788609516643221,0.4461873613397188,1.2790928538330644,0.6142159584701957
0.7763120100267348,0.4384884060236144,1.2596808402688984,0.602966714129035
0.7642229567861815,0.4309325517036192,1.2405946704458368,0.5919245354762347
0.7523385928683887,0.4235167699158259,1.2218285266203806,0.5810852247606543
0.7406552294155733,0.4162381141702012,1.2033767045021915,0.5704446903742721
0.7291692509573464,0.40909371695432883,1.1852336106469483,0.5599989431990632
0.7178771136591838,0.40208078687303506,1.1673937599260689,0.5497440931147373
0.7067753436251152,0.39519660591704675,1.1498517730703959,0.53967634565934
0.6958605352524923,0.3884385268542525,1.1326023742850428,0.5297919988351237
0.6851293496367901,0.38180397073741457,1.1156403889327424,0.5200874400524964
0.6745785130244947,0.3752904245225335,1.0989607412831575,0.5105591432052281
0.6642048153122149,0.3688954387923592,1.082558452325711,0.5012036658704548
0.6540051085902429,0.3626166255798272,1.066428637643622,0.49201764662734654
0.643976305728868,0.35645165628646625,1.0505665053469222,0.4829978024886256
0.6341153790058249,0.3503982596910925,1.0349673540623265,0.4741409264394319
0.6244193587733309,0.3444542200443351,1.0196265709779282,0.4654438850783023
0.6148853321632335,0.3386173752447782,1.0045396299407747,0.4569036163553122
0.6055104418288584,0.33288561509271564,0.9897020896054619,0.44851712740267924
0.5962918847222094,0.3272568796177284,0.9751095916319743,0.440281492453372
0.5872269109052304,0.3217291574764829,0.9607578589310558,0.4321938508434943
0.5783128223938977,0.3163004844173424,0.9466426939554892,0.42425140509443854
0.5695469720339636,0.3109689418085516,0.9327599770357198,0.416451419071
0.5609267624072246,0.30573265522692594,0.919105664758325,0.40879121621184467
0.5524496447672357,0.3005897931041345,0.9056757883858936,0.4012681778289096
0.5441131180034381,0.2955385654278131,0.8924664523169465,0.3938797414724815
0.5359147276327143,0.29057722249488593,0.8794738325845791,0.3866233993588746
0.5278520648174236,0.28570405371461416,0.8666941753925524,0.3794966968577833
0.5199227654090129,0.2809173864590043,0.8541237956876401,0.37249723103652876
0.5121245090163358,0.27621558495834464,0.8417590757670496,0.3656226492585704
0.5044550180978492,0.2715970492397417,0.8295964639198122,0.35908012265528705
0.4969120570768917,0.2670602141066396,0.81763247310107,0.3562052045048461
0.489493431479279,0.2626035481574138,0.8058636796382295,0.35388455019481435
0.48219698709248665,0.2582255528412172,0.7942867219679888,0.35560457255323485
0.4750206091457173,0.25392476154935106,0.7828982994033094,0.3572074881816464
0.46796222151017985,0.2496997387405382,0.7716951709293867,0.3586990830922191
0.46101978591893406,0.24554907909852242,0.7606741540277804,0.36008487751871154
0.4541913012056823,0.24147140672054102,0.7498321235278405,0.36137013782068417
0.4474748025619114,0.23746537433524695,0.7391660104846132,0.36255988785979665
0.44086836081181485,0.23352966254876573,0.7286728010824679,0.36365891987149845
0.4343700817044461,0.22966297911761346,0.7183495355636784,0.36467180485440476
0.427978105222575,0.2258640582472795,0.7081933071812456,0.3656029024986559
0.4216906049077416,0.22213165991532502,0.6982012611752533,0.3664563706736286
0.41550578720102,0.21846456921792368,0.6883705937721114,0.36723617449446344
0.4094218907990228,0.21486159573880503,0.6786985512060122,0.3679460949860205
0.40343718602469764,0.21132157293962217,0.6691824287619996,0.36858973736204803
0.3975499742124798,0.2078433575708195,0.65981956984005,0.36917053893656737
0.39175858710738576,0.2044258291021046,0.6506073650395696,0.3696917766837341
0.3860613862776462,0.20106788917169138,0.6415432512637766,0.37015657446170624
0.38045676254048905,0.19776846105351154,0.6326247108434118,0.3705679099153736
0.37494313540070395,0.19452648914162984,0.6238492706792627,0.37092862107214775
0.36951895250162625,0.1913409384511442,0.6152145014030079,0.37124141264438204
0.3641826890881962,0.18821079413487996,0.6067180165558921,0.3715088620513929
0.35893284748175924,0.18513506101522037,0.5983574717847593,0.3717334251734854
0.3537679565662867,0.18211276313045366,0.5901305640550081,0.37191744184983544
0.3486865712857058,0.17914294329503977,0.5820350308800195,0.3720631411315565
0.34368727215203965,0.176224662673235,0.5740686495666398,0.37217264630078906
0.33876866476407075,0.1733570003655328,0.5662292364763155,0.37224797966615397
0.33392937933624456,0.17053905300741057,0.5585146463014767,0.3722910671444797
0.32916807023755,0.16776993437989285,0.5509227713568012,0.3723037426382497
0.3244834155401105,0.16504877503146964,0.5434515408849696,0.3722877522178214
0.3198741165772392,0.16237472191091895,0.5360989203765816,0.3722447581170558
0.3153388975107131,0.1597469380106249,0.5288629109038634,0.37217634255062204
0.3108765049070307,0.15716460201997018,0.5217415484678378,0.3720840113608683
0.30648570732242897,0.1546269079884368,0.5147329033586439,0.3719691975018147
0.3021652948964363,0.15213306499803958,0.5078350795286766,0.3718332643674791
0.2979140789537513,0.14968229684474565,0.5010462139782446,0.37167750897143503
0.29373089161424176,0.14727384172854474,0.49436447615346446,0.37150316498419156
0.28961458541086244,0.144906951951859,0.48778806735607816,0.371311405634697
0.2855640329153006,0.14258089362598025,0.48131522016494177,0.3711033464819935
0.2815781263711639,0.1402949463852522,0.47494419786890085,0.37088004806277475
0.2776557773345244,0.13804840310871513,0.4686732939107945,0.37064251842035023
0.27379591632164924,0.13584056964895808,0.46250083134233266,0.37039171552028105
0.26999749246374416,0.13367076456791271,0.45642516228959784,0.3701285495577066
0.26625947316854576,0.13153831887935974,0.4504446674289402,0.36985388516117557
0.26258084378860275,0.1294425757979124,0.444557755473018,0.3695685434975703
0.25896060729609105,0.127382890494255,0.4387628626667719,0.36927330428251526
0.2553977839640116,0.12535862985642943,0.4330584522930987,0.3689689077004661
0.25189141105362484,0.12336917225696287,0.42744301418802966,0.3686560562384903
0.24844054250797937,0.12141390732565238,0.4219150642651779,0.3683354164375756
0.245044248651398,0.11949223572780943,0.4164731440492797,0.3680076205651259
0.2417016158947875,0.11760356894779755,0.41111582021861537,0.36767326821214896
0.23841174644663765,0.11574732907769125,0.4058416841561232,0.36733292781848437
0.23517375802959006,0.11392294861088725,0.4006493515090239,0.36698713812927175
0.23198678360244757,0.11212987024052401,0.39553746175676063,0.36663640958571353
0.22884997108750743,0.11036754666254889,0.39050467778709685,0.36628122565305865
0.22576248310310243,0.10863544038329787,0.3855496854801832,0.3659220440885995
0.2227234967012356,0.10693302353144762,0.3806711933004332,0.3655592981523538
0.21973220311019653,0.10525977767420536,0.3758679318960432,0.3651933977629769
0.21678780748205806,0.1036151936376164,0.3711386537059964,0.3648247306013548
0.21388952864494226,0.10199877133086244,0.36648213257439743,0.36445366316419536
0.21103659885995735,0.10041001957443796,0.3618971633719765,0.3640805417698597
0.20822826358270818,0.09884845593208569,0.35738256162463866,0.3637056935185493
0.20546378122927905,0.09731360654639676,0.3529371631488798,0.3633294272088957
0.20274242294660139,0.0958050059779556,0.34855982369396354,0.3629520342128898
0.20006347238710792,0.09432219704794165,0.344249418590699,0.3625737893110125
0.19742622548759103,0.0928647306840904,0.34000484240668527,0.3621949514893448
0.1948299902521713,0.09143216576991475,0.3358250086079204,0.3618157647003517
0.19227408653929895,0.09002406899710513,0.3317088492266007,0.3614364585889652
0.18975784585269795,0.0886400147210219,0.32765531453503227,0.3610572491855155
0.1872806111361795,0.08727958481919373,0.3236633727255005,0.36067833956699424
0.18484173657223962,0.08594236855274351,0.3197320095959939,0.3602999204880639
0.18244058738436864,0.0846279624306705,0.31586022824166493,0.35992217098316903
0.18007653964299714,0.08333597007690752,0.3120470487519158,0.35954525894104106
0.1777489800750014,0.08206600210008619,0.30829150791298554,0.35916934165283454
0.1754573058767025,0.08081767596594014,0.3045926589159511,0.3587945663350739
0.17320092453028646,0.07959061587228056,0.3009495710700214,0.35842107062854245
0.17097925362357574,0.07838445262647875,0.29736132952102556,0.35804898307419075
0.16879172067309045,0.07719882352539231,0.2938270349749985,0.35767842356709534
0.16663776295032906,0.07603337223768158,0.2903458034267523,0.3573095037894537
0.16451682731120892,0.07488774868845038,0.28691676589335846,0.3569423276235567
0.16242837002860322,0.07376160894615713,0.28353906815242547,0.3565769915456375
0.16037185662791376,0.07265461511174798,0.2802118704850891,0.35621358500145817
0.15834676172562068,0.07156643520994999,0.276934347423625,0.3558521907644545
0.15635256887075016,0.07049674308268095,0.27370568750359436,0.355492885277223
0.15438877038920634,0.06944521828452377,0.2705250930204386,0.35513573897710216
0.15245486723090895,0.06841154598021948,0.26739177979042905,0.35478081660656535
0.15055036881968414,0.06739541684412576,0.2643049769159036,0.3544281775091058
0.14867479290585595,0.06639652696160825,0.26126392655469677,0.3540778759112734
0.14682766542148457,0.06541457773231196,0.25826788369368714,0.3537299611914855
0.1450085203382051,0.06444927577527093,0.25531611592639414,0.3533844781362111
0.14321689952761163,0.06350033283582157,0.2524079032345319,0.3530414671840959
0.14145235262414224,0.0625674656942723,0.24954253777345548,0.35270096465857836
0.13971443689041724,0.06165039607629608,0.24671932366143,0.35236300298951595
0.13800271708498169,0.06074885056501045,0.24393757677263683,0.3520276109243148
0.13631676533240888,0.05986256051469552,0.24119662453387103,0.35169481372904976
0.1346561609957212,0.05899126196613569,0.23849580572483275,0.3513646333800159
0.13302049055108128,0.05813469556353046,0.2358344702819659,0.3510370887461576
0.1314093474647145,0.05729260647295431,0.2332119791057785,0.3507121957627801
0.1298223320720195,0.05646474430232418,0.23062770387155984,0.3503899675969496
0.1282590514588251,0.05565086302285438,0.22808102684346054,0.35007041480495127
0.1267191193447555,0.054850720891950866,0.2255713406918518,0.3497535454821745
0.12520215596866263,0.054064080377534185,0.22309804831391156,0.34943936540576426
0.1237077879760895,0.05329070808374514,0.22066056265737588,0.3491278781703768
0.12223564830872286,0.0525303746780198,0.2182583065474053,0.34881908531734684
0.12078537609580531,0.05178285481948952,0.21589071251649194,0.348512986457572
0.11935661654746127,0.05104792708869699,0.21355722263737453,0.34820957938840236
0.11794902084991093,0.05032537391858505,0.21125728835888458,0.34790886020480905
0.11656224606253235,0.04961498152674648,0.20899037034468515,0.3476108234050934
0.11519595501673519,0.048916539848899765,0.20675593831484296,0.34731546199138963
0.11384981621662221,0.04822984247357398,0.20455347089018017,0.34702276756519945
0.11252350374139347,0.04755468657797057,0.20238245543937028,0.3467327304181884
0.11121669714947335,0.04689087286498861,0.2002423879286983,0.34644533961846025
0.10992908138431912,0.04623820550138169,0.19813277277447483,0.34616058309251985
0.10866034668188618,0.04559649205703209,0.19605312269802022,0.3458784477031258
0.10741018847971956,0.04496554344531478,0.1940029585832015,0.34559891932321885
0.10617830732763767,0.044345173864530185,0.19198180933645426,0.3453219829061117
0.10496440879998553,0.043735200740391944,0.1899892117492552,0.3450476225521113
0.10376820340942372,0.04313544466954067,0.18802471036300927,0.34477582157174047
0.10258940652222925,0.04254572936407164,0.1860878573362792,0.34450656254572076
0.10142773827507717,0.04196588159704806,0.18417821231435605,0.344239827381859
0.10028292349328022,0.04139573114899142,0.18229534230108801,0.34397559736899197
0.09915469161045742,0.0408351107553252,0.18043882153295532,0.3437138532281192
0.09804277658960575,0.04028385605474982,0.17860823135534876,0.34345457516086253
0.09694691684555223,0.03974180553854201,0.17680316010098207,0.34319774289537086
0.09586685516875881,0.03920880050074893,0.17502320297045082,0.3429433357297951
0.09480233865045651,0.0386846849892728,0.1732679619148536,0.34269133257344886
0.09375311860908664,0.03816930575781685,0.17153704552046034,0.34244171198575757
0.09271895051802259,0.03766251221868555,0.16983006889539198,0.34219445221310985
0.09169959393455279,0.03716415639642168,0.1681466535582674,0.3419495312237014
0.09069481243009858,0.036674092882259535,0.16648642732878915,0.34170692674047476
0.08970437352164878,0.03619217878938852,0.16484902422022363,0.34146661627224084
0.08872804860438549,0.03571827370900116,0.16323408433376385,0.34122857714307064
0.0877656128854824,0.03525223966712088,0.16164125375471272,0.34099278652003784
0.08681684531905437,0.03479394108218803,0.16007018445047017,0.3407592214393971
0.08588152854223668,0.03434324472339623,0.15852053417030287,0.34052785883126446
0.08495944881237416,0.03390001966976042,0.156991966346832,0.3402986755428823
0.08405039594530223,0.03346413726990638,0.15548414999925186,0.34007164836052695
0.08315416325469749,0.03303547110256522,0.15399675963820614,0.3398467540301331
0.08227054749248103,0.032613896937767395,0.15252947517232407,0.33962396927669336
0.08139934879025601,0.032199292698711024,0.15108198181637222,0.33940327082249266
0.08054037060175828,0.031791538424306376,0.14965397000099578,0.33918463540423527
0.07969341964630622,0.03139051623237599,0.14824513528402106,0.33896803978911927
0.07885830585322956,0.03099611028349669,0.14685517826329741,0.33875346078991087
0.07803484230725893,0.03060820674548037,0.14548380449103937,0.33854087527906285
0.07722284519486261,0.030226693758473866,0.14413072438965546,0.33833026020193313
0.07642213375150947,0.029851461400672963,0.14279565316903087,0.3381215925891413
0.07563253020984761,0.02948240165463334,0.14147831074523598,0.33791484956810736
0.07485385974877418,0.029119408374174593,0.14017842166064387,0.33771000837381815
0.07408595044338911,0.02876237725185926,0.13889571500542353,0.33750704635885265
0.07343422665248472,0.02841120578704648,0.13762992434038845,0.33730594100271005
0.07325754567126264,0.028065793254498428,0.13638078762118022,0.33710666992047467
0.07308165412886486,0.027726040673535346,0.1351480471237554,0.33690921087084946
0.07290653193924884,0.02739185077773576,0.13393144937115742,0.33671354176359025
0.0727321599014476,0.027063127985160196,0.13273074506155824,0.3365196406663744
0.07255851966422427,0.026739778369095246,0.13154568899753039,0.33632748581113336
0.0723855936920404,0.026421709629308676,0.13037604001654324,0.3361370555998705
0.07221336523229221,0.026108831063810234,0.12922156092265613,0.33594832861000057
0.07204181828376854,0.02580105354109752,0.12808201841938693,0.3357612835992275
0.07187093756628621,0.025498289472892233,0.1269571830437355,0.3355758995099918
0.07170070849146132,0.025200452787347838,0.12584682910134437,0.33539215547350454
0.07153111713457466,0.024907458902728274,0.1247507346027723,0.33521003081339384
0.07136215020749209,0.024619224701539433,0.12366868120087093,0.33502950504898465
0.07119379503260242,0.024335668505118035,0.12260045412922738,0.3348505578982286
0.07102603951773473,0.02405671004865728,0.12154584214167197,0.3346731692803062
0.07085887213202102,0.023782270456672472,0.12050463745282913,0.33449731931791915
0.07069228188266968,0.023512272218889074,0.11947663567967792,0.33432298833928675
0.0705262582926161,0.02324663916655556,0.11846163578413216,0.33415015687986793
