jointMR1,jointMR2,jointMR3,force
6.314243385260852,5.454382371287762,7.840925638273182,6.150615806786958
5.961623919334396,5.152279251770232,7.395998440974939,5.808380918584277
5.628065135194289,4.866456075541141,6.975234348931519,5.4846311930898795
5.312548048082895,4.5960433786190755,6.577339605293977,5.1783785479078235
5.014107933899611,4.340217981244591,6.201089380745998,4.888687516066634
4.731831444004501,4.098200527038423,5.845324107816914,4.61467244822119
4.464853873352319,3.86925315293583,5.508946010013419,4.355494863544366
4.212356573810274,3.6526772829485408,5.190915815418634,4.110360941408101
3.9735645049454242,3.4478115391750626,4.890249644957214,3.878519146373157
3.7477439149776215,3.254029763829563,4.606016066045824,3.659257979404478
3.534200144981885,3.070739146390575,4.3373333028414205,3.4519038486051103
3.332275549791536,2.8973784502841102,4.08336659476661,3.255819053118195
3.141347529401324,2.733416333812581,3.845206875032042,3.0703998741838423
2.9608266649992703,2.6020253410853478,3.62095782373198,2.9077473450444136
2.7901549540677983,2.4815332185497714,3.4089987303563243,2.7908695935852528
2.628804139290155,2.3664514179628764,3.208668803123918,2.6791944650222295
2.476274126277751,2.256539965787106,3.070345650321637,2.572492074064541
2.3320914853988897,2.1515694822382736,2.955441659264674,2.470542665703046
2.1958080332400733,2.0513207144737167,2.8446230963078185,2.3731361691975126
2.06699948946852,1.9555840903355608,2.7377462991268775,2.2800717716954857
1.9452642050893048,1.8661340896927485,2.6346726369634923,2.1911575106187304
1.830221958303455,1.7828879146999677,2.5352683346845954,2.106209883991258
1.7410640795450572,1.703319601493631,2.4512069383560684,2.025053477919267
1.6792705438660285,1.6272675552105487,2.4035601609823596,1.9475206104681053
1.619655956424557,1.5545772760439902,2.3568828303765557,1.8734509912145765
1.5621438255755755,1.4851010475522581,2.3111509183863057,1.8026913957846742
1.5066603371590113,1.418697638668822,2.266341197457911,1.7350953547171986
1.453134260907068,1.3572543618477886,2.2224312063037135,1.6705228560227299
1.4014968601215307,1.3083204501172614,2.1793992172526155,1.6088400608351856
1.351681804506829,1.2611177508652507,2.137224205196745,1.549919031579724
1.3036250860486065,1.2155854691846546,2.095885818051829,1.4936374721061092
1.2652689552482346,1.1716649383510058,2.055364348653198,1.4398784792608987
1.2413110487997152,1.1292995454198218,2.0156407080134517,1.3885303053950047
1.2178348451858727,1.0884346594241394,1.9766963998716893,1.3394861313253181
1.1948285613255132,1.0490175620813533,1.9385134964679083,1.2926438492902848
1.172280802164731,1.010997380921652,1.9010746154796634,1.247905855459567
1.1501805441335933,0.9743250247534178,1.8643628980613722,1.2051788515772814
1.1285171194125994,0.9389531213839076,1.8283619879297963,1.1643736553368125
1.1072802009670644,0.9048359575163994,1.7959402029330154,1.1254050191028981
1.08645978830977,0.8719294207477329,1.7674592882019702,1.08819145661359
1.0660461939543167,0.8401909435928409,1.7394738534047096,1.0526550773108712
1.0460300305235954,0.8099082961376277,1.711974528460166,1.0187214279641525
1.0264021984796479,0.7818357470731393,1.6849521477342455,0.9863193412656803
1.0071538744429906,0.7547321761224497,1.6583977444065714,0.9553807910909757
0.9882765000711209,0.7285639672007816,1.6323025450395274,0.9258407541309621
0.9697617714675422,0.7096847023166004,1.6066579643407648,0.8976370776153321
0.9516016290941371,0.6968746616363188,1.5814556001107725,0.8707103528590555
0.9337882481611446,0.6843107255746776,1.5566872283675166,0.845003794375725
0.916314029470354,0.6719872974318333,1.5323447986405299,0.8204631243127215
0.8991715906883964,0.659898949848879,1.5084204294272119,0.7970364619739582
0.8823537580282486,0.6480404179879105,1.4849064038044362,0.7746742182062786
0.8658535583181806,0.6364065930377301,1.4617951651888967,0.7533289944354387
0.8496642114384902,0.6249925160285119,1.4390793132399398,0.7329554861470151
0.8337791231073906,0.6137933719396067,1.4167515998989149,0.7135103906166047
0.8181918779983803,0.6028044840855025,1.3948049255593777,0.6991352608251292
0.8028962331723692,0.5920213087657551,1.3732323353627296,0.6863092539478992
0.7878861118086892,0.5814394301654247,1.3520270156141398,0.6737230137914861
0.7731555972199573,0.5710545554932813,1.3311822903138433,0.6613714819068307
0.7586989271365442,0.5608625103456915,1.3106916177991288,0.6492497368352862
0.744510488247136,0.5508592342847485,1.2905485874925524,0.6373529890650952
0.7305848109825904,0.5410407766197949,1.2707469167521235,0.6256765762185523
0.7169165645309483,0.5314032923820582,1.2512804478194013,0.6142159584582113
0.7035005520720997,0.5219430384826562,1.2321431448616318,0.6029667141010845
0.6903317062211922,0.5126563700447426,1.2133290911042325,0.5919245354303813
0.6774050846704485,0.5035397369010415,1.1948324860500972,0.5810852246948603
0.664715866019583,0.4945896802484678,1.1766476427823598,0.5704446902864001
0.6522593457855315,0.4858028294519879,1.1587689853474084,0.5599989430868736
0.6400309325826713,0.477175898990252,1.141191046215079,0.5497440929758934
0.6297017548536925,0.4687056855359459,1.1239084638131076,0.5396763454914072
0.6197768443075617,0.4603890651641603,1.1069159801330406,0.5297919986355706
0.6100206294103685,0.4522229906824284,1.0902084384049417,0.5200874398186981
0.6004300802669028,0.4442044890764189,1.0737807808383264,0.510559142934467
0.591002226346002,0.4363306590655696,1.0576280464269083,0.5012036655599247
0.5817341551088,0.42859866876326297,1.0417453688148108,0.49201764627415245
0.5726230106776801,0.4210057534363986,1.0261279742220175,0.4829978020897894
0.5636659925443748,0.41354921335951594,1.0107711794269392,0.4741409259918938
0.5548603543157303,0.4062264117588395,0.9956703898040477,0.46544388457892444
0.5462034024957174,0.3990347728418773,0.9808210974146395,0.4569036158008824
0.5376924953023368,0.3919717799084301,0.9662188791488481,0.4485171267899146
0.5293250415181237,0.38503497353906285,0.9518593949171357,0.44028149177892295
0.5210984993730177,0.3782219498573211,0.9377383858895404,0.43219385010394884
0.5130103754584154,0.37153035886213964,0.9238516727810516,0.4242514042863267
0.5050582236712762,0.36495790282709345,0.9101951541815392,0.416451418190798
0.4972396441872024,0.3585023347632988,0.8967648049287408,0.40888120653599397
0.48955228246146004,0.3521614569429458,0.8835566745228582,0.40445566400700766
0.48199382825695253,0.3459331194805915,0.8705668855813934,0.4002430655695902
0.47456201469820075,0.3398152189694939,0.8577916323328939,0.3962337107392085
0.46725461735042617,0.3338056971704006,0.845227179148342,0.3924183308909416
0.46006945332286925,0.32790253975034506,0.832869859108971,0.38878807018399036
0.4530043803955138,0.32210377506911986,0.8207160726093384,0.3853344673266153
0.4460572961684239,0.316407473011223,0.8087622859945387,0.38204943814450015
0.43922613723292986,0.31081174386117366,0.7970050302304774,0.3789252589171736
0.4325088783639367,0.30531473722021657,0.7854408996061752,0.37595455044867465
0.4259035317326525,0.2999146409625158,0.7740665504671089,0.37599818734978363
0.41940814613907057,0.29460968022904793,0.7628786999786341,0.37770191340874126
0.4130208062635582,0.28939811645749286,0.7518741249185801,0.37928525877155694
0.40673963193693885,0.2842782464464963,0.7410496604981245,0.38075414702065047
0.40056277742847446,0.27924840145277324,0.7304021992101193,0.38211423113049514
0.3944884307511804,0.27430694631958835,0.7199286897040262,0.383370905542435
0.388514812983928,0.26945227863522586,0.7096261356867137,0.38452931770522025
0.3826401776098117,0.2646828279201309,0.6994915948483267,0.38559437910482175
0.37686280987027787,0.25999705484146846,0.6895221778125233,0.3865707758060545
0.3711810261345313,0.2553934504539101,0.679715047110381,0.3874629785275485
0.3655931732837575,0.2508705354655139,0.6700674161772795,0.3882752522706481
0.3600976281097124,0.24642685952762328,0.660576548372142,0.3890116655219239
0.3546927967272513,0.2420610005477613,0.6512397560183807,0.3896760990481094
0.349377114000385,0.23777156402454497,0.6420543994659564,0.3902722543014434
0.34414904298146504,0.23355718240369555,0.6330178861739799,0.3908036614526149
0.33900707436311667,0.22941651445426675,0.6241276698132785,0.3912736870677369
0.33394972594255157,0.22534824466424302,0.6153812493883968,0.3916855414450694
0.32897554209790636,0.22146237952766942,0.6067761683785078,0.3920422856264989
0.32408309327626533,0.21801466663621313,0.5983100138967288,0.3923468380981371
0.31927097549303946,0.21462375897452604,0.5899804158673638,0.39260198119376
0.31453780984238455,0.21128868379031526,0.5817850462205854,0.3928103672142056
0.30988224201835285,0.208008485757424,0.5737216181041203,0.392974524275272
0.3053029418464849,0.20478222663780485,0.5657878851114955,0.3930968618961024
0.30079860282555615,0.2016089849511151,0.5579816405264071,0.39317967633951667
0.2963679416792059,0.1984878556517212,0.550300716582824,0.3932251557152465
0.2920096979171822,0.19541794981290225,0.5427429837404094,0.39323538485654164
0.28772263340595006,0.19239839431804676,0.5353063499748933,0.39321234998015875
0.28350553194841366,0.1894283315586566,0.5279887600830091,0.3931579431393065
0.2793571988725162,0.18650691913896092,0.5207881950016471,0.3930739664786844
0.2752764606284873,0.1836333295869679,0.5137026711408701,0.39296213630036825
0.2712621643945144,0.18080675007177474,0.5067302397304543,0.3928240869488965
0.26731317769062446,0.17802638212696756,0.4998689861796324,0.39266137452354843
0.2634283880005672,0.1752914413799527,0.4931170294497187,0.3924754804254489
0.2596067024014993,0.1726011572870587,0.4864725214393073,0.3922678147468063
0.2558470472012749,0.16995477287425784,0.4799336463817552,0.392039719509258
0.2521483675831533,0.16735154448336212,0.4734986202546476,0.3917924717579966
0.24850962725774323,0.16479074152355114,0.46716569020098153,0.39152728651805335
0.24492980812200527,0.16227164622809667,0.4609331339617775,0.3912453196188349
0.24140790992514238,0.15979355341614745,0.45479925931987175,0.3909476703927426
0.23794294994121307,0.15735577025945155,0.44876240355463004,0.390635384253437
0.23453396264830556,0.15495761605388905,0.4428209329073205,0.39030945515908655
0.23117999941411846,0.15259842199569482,0.43697324205691945,0.3899708279656704
0.22788012818779607,0.1502775309622584,0.43121775360611836,0.3896204006752205
0.22463343319787227,0.1479942972973863,0.42555291757727853,0.38925902658363654
0.22143901465618104,0.14574808660091668,0.41997721091814877,0.3888875163325318
0.21829598846759507,0.14353827552258455,0.41448913701709245,0.38850663986935075
0.2152034859454597,0.14136425156003277,0.4090872252276485,0.3881171283198255
0.21216065353259117,0.13922541286087095,0.4037700304021954,0.387719675776648
0.20916665252771388,0.13712116802868404,0.398536132434538,0.38731494100807773
0.206220658817213,0.13505093593290116,0.3933841358112147,0.38690354909002234
0.20332186261208468,0.13301414552243127,0.3883126691713392,0.38648609296498915
0.20046946818996678,0.13101023564297962,0.3833203848747959,0.38606313493114774
0.19766269364213856,0.12903865485795799,0.3784059585786077,0.38563520806459883
0.19490077062537908,0.12709886127291,0.3735680888213062,0.3852028175778125
0.19218294411857878,0.12519032236336544,0.3688054966151324,0.3847664421170688
0.18950847218399952,0.12331251480605324,0.3641169250459051,0.3843265350016023
0.18687662573308395,0.12146492431338832,0.3595011388803939,0.3838835254070406
0.18428668829671438,0.11964704547116803,0.3549569241810433,0.38343781949560496
0.18173795579982704,0.11785838157939973,0.35048308792789795,0.38298980149544015
0.1792297363402887,0.1160984444961933,0.3460784576475686,0.38253983473132946
0.17676134997194382,0.11436675448465042,0.3417418810491135,0.38208826260895346
0.17433212849174615,0.11266284006268543,0.33747222566667046,0.3816354095547575
0.17194141523088732,0.11098623785571213,0.33326837850872004,0.38118158191340024
0.16958856484983914,0.10933649245213536,0.3291292457138395,0.3807270688046659
0.16727294313722874,0.10771315626158881,0.32505375221281363,0.3802721429416439
0.1649939268124664,0.10611578937585506,0.321040841396973,0.3798170614119001
0.1627509033320483,0.10454395943241648,0.3170894747926434,0.37936206642328163
0.16054327069945898,0.10299724148057618,0.3131986317415696,0.3789073860159309
0.15837043727860076,0.10147521785009792,0.3093673090872173,0.37845323474201287
0.1562318216106759,0.09997747802230991,0.3055945208668025,0.37799981431459295
0.15412685223445402,0.09850361850362169,0.30187929800896907,0.3775473142270377
0.15205496750985353,0.09705324270140311,0.29822068803698487,0.3770959123442522
0.15001561544477338,0.09562596080217853,0.2946177547773441,0.3766457754670124
0.1480082535251066,0.09422138965208407,0.2910695780736856,0.3761970598705837
0.14603234854787478,0.09283915263954548,0.28757525350590996,0.3757499118187828
0.14408737645741915,0.09147887958012998,0.2841338921143961,0.3753044680545682
0.14217282218458888,0.09014020660352465,0.28074462012922363,0.37486085626821475
0.140288179488867,0.088822776042603,0.27740657870429963,0.3744191955440681
0.13843295080337523,0.0875262363245343,0.2741189236562962,0.37397959678683734
0.13660664708270162,0.08625024186389327,0.2708808252082995,0.37354216312834054
0.13480878765349685,0.08499445295773536,0.26769146773809793,0.3731069903155755
0.13303890006778182,0.08375853568258992,0.2645500495309969,0.37267416708095236
0.13129651995891795,0.08254216179334192,0.2614557825370898,0.3722437754954836
0.1295811909001844,0.08134500862395763,0.2584078921328954,0.37181589130569914
0.1278924642659153,0.0801667589900201,0.25540561688727514,0.3713905842550078
0.12622989909514393,0.0790071010930419,0.2524482083315571,0.3709679183902105
0.1245930619577095,0.07786572842651338,0.24953493073377708,0.3705479523538231
0.12298152682277505,0.07674233968365837,0.24666506087696427,0.37013073966285004
0.12139487492971454,0.07563663866686174,0.24383788784140092,0.36971632897461515
0.11983269466131932,0.07454833419873433,0.2410527127907638,0.3693047643402313
0.11829458141928442,0.07347714003478703,0.23830884876209635,0.3688960854462622
0.11678013750192709,0.07242277477768047,0.2356056204595196,0.36849032784510993
0.11528897198409846,0.07138496179301881,0.23294236405163193,0.3680875231746341
0.11382070059924479,0.07036342912666202,0.23031842697250515,0.3676876993674849
0.11237494562357814,0.06935790942352124,0.22773316772623198,0.36729088085061723
0.11095133576231839,0.06836813984781673,0.2251859556949476,0.3668970887354259
0.10954950603796401,0.06739386200476125,0.22267617095026004,0.36650634099892543
0.10816909768055796,0.06643482186365005,0.22020320406802996,0.3661186526563762
0.10680975801990733,0.06549076968232484,0.21776645594643695,0.3657340359257496
0.10547114037972333,0.06456145993298842,0.2153653376272744,0.3653525003843918
0.10415290397364357,0.06364665122934474,0.21299927012039976,0.3649740531182478
0.10285471380310302,0.0627461062550361,0.2106676842313051,0.3645986988639751
0.1015762405570182,0.06185959169335872,0.20837002039173314,0.3642264401442745
0.10031716051325246,0.060986878158224817,0.20610572849328057,0.363857277396743
0.09907715544182771,0.06012774012635677,0.20387426772395423,0.36349120909654076
0.0978559125098512,0.05928195587068172,0.20167510640759745,0.3631282318731591
0.09665312418812522,0.05844930739491114,0.19950772184616672,0.3627683406215497
0.09546848815941023,0.05762958036927754,0.19737160016477207,0.3624115286078783
0.09430170722830805,0.0568225640674124,0.19526623615945815,0.36205778757014373
0.09315248923273894,0.05602805130433838,0.19319113314766256,0.36170710781389714
0.09202054695697987,0.0552458383755606,0.19114580282131066,0.36135947830328596
0.0909055980462386,0.05447572499723044,0.18912976510248325,0.36101488674763615
0.0898073649227325,0.053717514247369674,0.18714254800163266,0.3606733196837738
0.08872557470324705,0.05297101250812833,0.18518368747828595,0.36033476255428554
0.08765995911814584,0.05223602940906072,0.1832527273041904,0.3599991997819002
0.08661025443180542,0.0515123777714013,0.18134921892886657,0.35966661484017115
0.08557620136445043,0.05079987355332047,0.17947272134751802,0.3593369903206324
0.08455754501536128,0.05009833579614251,0.17762280097125172,0.3590103079965814
0.083554034787433,0.04940758657150843,0.17579903149957854,0.3586865488836565
0.08328021159137239,0.04872745092946826,0.174000993795147,0.3583656932973447
0.08303591507313426,0.048057756847481065,0.17222827576066413,0.35804772090757153
0.08279390573206705,0.04739833518031214,0.1704804722179749,0.35773261079050067
0.08255411509775329,0.046749019610805326,0.16875718478925483,0.357420341477678
0.08231647726741492,0.04610964660152003,0.16705802178027818,0.3571108910026364
0.08208092881150186,0.045480055347211695,0.16538259806572997,0.35680423694508967
0.08184740868266568,0.044860087728145565,0.1637305349765137,0.3565003564728154
0.08161585812799899,0.04424958826422462,0.16210146018903648,0.35619922638134616
0.08138622060442477,0.04364840406992057,0.16049500761641355,0.35590082313156135
0.08115844169712472,0.04305638480998866,0.15891081730158318,0.35560512288528523
0.08093246904089837,0.042473382655957986,0.15734853531227477,0.35531210153898185
0.08070825224435002,0.0418992522433789,0.15580781363781893,0.3550217347556346
0.0804857428168026,0.04133385062981501,0.15428831008773836,0.3547339979948979
0.08026489409784271,0.040777037253567544,0.1527896881921218,0.35444886654160257
0.08004566118940265,0.04022867389311832,0.15131161710372565,0.3541663155326924
0.07982800089029057,0.03968862462727632,0.1498537715017767,0.35388631998266296
0.07961187163308109,0.03915675579602071,0.14841583149744686,0.3536088548075812
0.07939723342328348,0.03863293596202058,0.14699748254098122,0.35333389484774247
0.07918404778070584,0.03811703587282425,0.14559841533042972,0.35306141488904386
0.07897227768293796,0.03760892842370797,0.14421832572197246,0.35279138968311896
0.07876188751087748,0.03710848862116409,0.14285691464179506,0.3525237939663092
0.07855284299622656,0.036615593547025566,0.14151388799950326,0.3522586024775144
0.07834511117088949,0.03613012232321325,0.14018895660303143,0.3519957899749875
0.0781386603182039,0.03565195607709101,0.13888183607503235,0.35173533125211554
0.07793345992593897,0.035180977907422945,0.13759224677072068,0.35147720115224057
0.0777294806410001,0.03471707285091971,0.13631991369713248,0.3512213745825685
0.0775266942257774,0.03426012784936319,0.1350645664337926,0.3509678265272056
0.07732507351608037,0.033810031717300265,0.13382593905474982,0.3507165320593687
0.07712459238060254,0.03336667511029387,0.13260377005197133,0.35046746635281023
0.07692522568186064,0.03292995049372496,0.1313978022600506,0.35022060469249383
0.07672694923855716,0.03249975211213099,0.13020778278223788,0.34997592248455833
0.07652973978931427,0.03207597595907566,0.12903346291773254,0.34973339526560876
0.0763335749577308,0.0316585197475375,0.12787459809024093,0.34949299871136297
0.07613843321871544,0.031247282880809996,0.1267309477777756,0.3492547086446903
0.07594429386605,0.03084216642390289,0.12560227544365832,0.34901850104306764
0.07575113698113894,0.030443073075437393,0.12448834846872336,0.3487843520454901
0.07555894340290342,0.030049907140025006,0.12338893808468865,0.34855223795885526
0.07536769469877797,0.029662574501122613,0.12230381930868073,0.34832213526385436
0.07517737313677139,0.02928098259435455,0.12123277087888917,0.34809402062039196
0.07498796165855318,0.028905040381293684,0.12017557519133137,0.3478678708725589
0.07479944385352894,0.028534658323695034,0.11913201823771224,0.3476436630531844
0.0746118039338694,0.028169748358170627,0.11810188954435019,0.3474213743879838
0.07442502671045928,0.027810223871301415,0.11708498211216978,0.34720098229932883
0.0742390975697321,0.02745599967517573,0.11608109235770958,0.3469824644096565
0.07405400245136029,0.027106991983349205,0.11509002005516855,0.3467657985445368
0.07386972782676915,0.026763118387216567,0.11411156827943536,0.3465509627354162
