jointFR1,jointFR2,jointFR3,force
5.334082005107719,5.558583258839108,8.062518724585127,5.149212707873502
5.041112094566624,5.260285638207115,7.611008387571145,4.90765682592507
4.763684531148215,4.977752150454876,7.183647365796151,4.6770963239957135
4.500982975270657,4.7101558682318005,6.779163679904038,4.457036255375786
4.252233804948586,4.456713114834147,6.396351975680888,4.247003858601151
4.016703883736983,4.216681204742223,6.034070041615873,4.0465475646764775
3.7936984452326885,3.9893563021362874,5.691235508336157,3.8552360486948047
3.586604803088552,3.7740713912321633,5.3668227204204175,3.672657323868562
3.4166785614673945,3.570194352599092,5.059859771591366,3.5004785319644354
3.25451338952894,3.3771261399270562,4.769425694757306,3.3391989217779376
3.099759483046664,3.1942990519996024,4.494647798818194,3.1851040045008894
2.9520827253011186,3.021175094901928,4.234699144573538,3.037875908326418
2.811163984919785,2.8572444297534556,3.9887961524695976,2.89721078340169
2.6766984451201097,2.702023901499992,3.7561963353023957,2.7628181840164245
2.548394962951737,2.555055644533666,3.5361961493523877,2.634420478000937
2.425975457196729,2.4159057611297055,3.32812895776725,2.511752282135427
2.3091743236464963,2.2841630688985286,3.1313631003319955,2.394559922425096
2.1977378765314497,2.1594379136500157,2.9693313104431676,2.285383074764289
2.0914238149341067,2.0413610442549603,2.8723306500970924,2.184201668508691
1.990000713068628,1.9295825462669312,2.778370871755953,2.0875237608484274
1.8932475333597125,1.8237708312367502,2.687358019618787,1.9951498841509416
1.8009531613014846,1.7236116788119404,2.6074748628877007,1.9068893756616727
1.71291596112254,1.6333481818908324,2.5559441137343333,1.834816460918566
1.645363171199979,1.5546976839420588,2.5054469910188226,1.7666015941624256
1.5919887916019742,1.479660544105224,2.4559610498305755,1.701399776281582
1.5402753897614454,1.408073556484997,2.4074644031536154,1.6390778885977109
1.490171915666667,1.3397808402179852,2.359935705216425,1.5795086841103911
1.4416288821305885,1.2746335115079257,2.313354135443493,1.5225705287348053
1.3945983169288312,1.230864133539602,2.2676993829832495,1.4681471539388795
1.3490337164087038,1.1920323146697271,2.222951631788232,1.4161274202777192
1.304890000523683,1.15440356279903,2.1790915462244738,1.366405091345319
1.2621234692493097,1.1179409472810502,2.136100257188127,1.3188786176846665
1.2206917603377532,1.0826086676344968,2.093959348708383,1.2734509302175967
1.1805538083697038,1.0483720189318457,2.052650845016682,1.2300292427750323
1.1416698050634755,1.0151973582519127,2.0121571980631408,1.188524863326764
1.1048285825569846,0.9830520721634961,1.9724612754619815,1.148853013527559
1.0694695991910836,0.95190454520817,1.9335463488485802,1.110932656213263
1.0352208773503706,0.921724129351331,1.8953960826315444,1.0746863304967118
1.002048095541628,0.8924811143715412,1.857994523123965,1.0400399941286889
0.9699179848573343,0.864146699159194,1.8213260880387183,1.0069228728039044
0.9387982967931109,0.8366929638963769,1.7853755563333584,0.975267316106077
0.9086577720495012,0.8100928430907153,1.7501280583907968,0.9450086597996709
0.8794661102878794,0.7843200994368278,1.7155690665225722,0.9160850941887276
0.8511939408112232,0.7593492984798464,1.6817549107300833,0.8884375382755345
0.8246915013638735,0.7351557840562302,1.6525617823147196,0.8620095194636613
0.8087445477374277,0.7117156544879113,1.6239368180900438,0.8367470585611313
0.7931112753498465,0.6890057395065072,1.5958678532740882,0.8125985598502686
0.7777850808601499,0.6670035778851187,1.5683430086760457,0.7895147060010287
0.7627595163032561,0.645687395755872,1.541350683363139,0.7674483576144716
0.7480282848194343,0.6250360855920878,1.514879547532646,0.7463544571924103
0.7335852365242422,0.605029185834582,1.4889185355828403,0.7261899373382752
0.7194243645134988,0.58564686114228,1.4634568393768115,0.7069136330028023
0.7055398009980803,0.5668698832478907,1.438483901693335,0.688486197596377
0.6919258135635575,0.5510595453483536,1.4139894098591412,0.6708700227977074
0.6785768015499052,0.5407722491275122,1.3899632895571352,0.6540291618960038
0.6654872925467269,0.530686435677207,1.3663956988052801,0.6379292565110122
0.6526519389996275,0.5207978621283287,1.3432770221010424,0.6225374665421078
0.6400655149235608,0.5111023853893277,1.320597864726457,0.607822403204209
0.627722912719153,0.5015959594130548,1.2983490472090318,0.593754065014534
0.6156191400881759,0.49227463255298426,1.276521599933863,0.5803037766002113
0.6037493170445064,0.48313454500538405,1.255106757902491,0.5684004285204672
0.5921086730170623,0.4741719263341297,1.234095955634154,0.5578855970337163
0.5806925440413527,0.4653830930750113,1.2134808222052544,0.5475896064554163
0.5694963700364248,0.456764446416519,1.1932531764229728,0.537506973877396
0.5585156921641176,0.44831246995421775,1.1734050221290966,0.5276323858757433
0.5477461502676696,0.4400237275159505,1.153928543630263,0.5179606923148837
0.5377593710858787,0.4318948610552262,1.1348161012509252,0.5084869004021243
0.5285308880796652,0.4239225886102586,1.1160602270054751,0.499206168982017
0.5194801415859099,0.4161037023262339,1.0976536203860638,0.4901138030603542
0.5106033603941575,0.4084350665384852,1.0795891442627745,0.48120524854805535
0.5018968610563392,0.40091361591434643,1.0618598208929002,0.47247608721562756
0.49335704566027166,0.3935363536515603,1.0444588280361857,0.46392203184928416
0.4849803996642128,0.3863003497311929,1.0273794951729904,0.45553892160019577
0.47676348979067706,0.37920273922310116,1.0106152998224205,0.44732271751871905
0.46870296197776845,0.3722407206420754,0.9941598639575713,0.4392694982657971
0.4607955393863453,0.36541155435285816,0.9780069505151109,0.4313754559940714
0.4530380204613839,0.3587125610223149,0.9621504599965187,0.4237863587438165
0.4454272770459586,0.35214112011709947,0.9465844271583786,0.4177659788079439
0.43796025254630616,0.34569466844522995,0.9313030177891999,0.41200634312791967
0.4306339601464898,0.3393706987400495,0.916300525570324,0.40649585413795325
0.423445481071223,0.3331667582851083,0.9015713690185447,0.401223428213769
0.41639196289546143,0.32708044757856863,0.8871100885081413,0.3961784729741182
0.40947061789941025,0.3211094190357791,0.8729113433700977,0.39135086558309284
0.40267872146763883,0.3152513757287279,0.8589699090663434,0.38673093200914604
0.396013610531034,0.3095040701611315,0.8452806744369215,0.38230942719866573
0.38947268205036184,0.3038653030779635,0.8318386390180488,0.3780775161238087
0.3830533915402466,0.2983329223082773,0.8186389104290954,0.3740267556660728
0.3767532516324111,0.29290482164021897,0.8056767018265738,0.3701490772987841
0.3705698306770578,0.28757893972717113,0.7929473294232732,0.3664367705332979
0.36450075138130605,0.2823532590240078,0.7804462100707499,0.36288246709525923
0.358543689483631,0.2772258047524803,0.7681688589034144,0.3594791257987605
0.3526963724632834,0.27219464389479114,0.7561108870425282,0.35622001808763615
0.3469565782837009,0.26725788421444946,0.7442679993584613,0.35309871421450384
0.34132213416895035,0.26241367330353454,0.7326359922896148,0.3501090700294458
0.3357909154122686,0.2576601976555278,0.7212107517164581,0.3472452143514668
0.33036084421580053,0.2529956817629037,0.7099882508891759,0.3445015368970475
0.3250298885606567,0.2484183872387024,0.6989645484074705,0.34187267674124394
0.3197960611064409,0.24392661196133275,0.6881357862510924,0.3393535112878628
0.3146574181194236,0.23951868924188396,0.6774981878597317,0.33693914572627925
0.3096120584285611,0.2351929870132508,0.6670480562609329,0.3346249029534511
0.3046581224085837,0.2309479070404003,0.6567817722447302,0.332406313940624
0.2997937909894012,0.2267818841511337,0.6466957925837542,0.3302791085251351
0.29501728469109334,0.22269338548672263,0.6367866482975775,0.328239206608573
0.29032686268377755,0.2186809097718157,0.627050942960117,0.3262827097433894
0.285720821871665,0.21474298660303787,0.6174853510489384,0.3244058930908379
0.28119749600063687,0.21087817575572404,0.6080866163353413,0.32260519773387486
0.2767552547886938,0.20708506650824537,0.5988515503141407,0.32087722332937635
0.2723925030786479,0.20336227698341108,0.5897770306720826,0.3192187210847119
0.2681076800124474,0.19970845350644023,0.580859999793871,0.31762658704438335
0.2638992582265409,0.19612226997902077,0.5720974633048084,0.3160978556730527
0.25976574306770545,0.1926024272689872,0.5634864886490789,0.3146296937219011
0.2557056718287797,0.1891476526151638,0.5550242037027346,0.31321939436582336
0.25171761300375994,0.18575669904693787,0.5467077954204693,0.3118643715995204
0.2478001655617314,0.18242834481813947,0.5385345085152913,0.31056215488107597
0.24395195823912397,0.17916139285482152,0.530501644170229,0.3093103840121047
0.24017164884979533,0.17595467021654537,0.5226065587812354,0.30810680424404385
0.23645792361245904,0.17280702757078997,0.514846662730468,0.3069492616006161
0.23280949649498914,0.16971733868011757,0.507219419189159,0.305835698406931
0.229225108575146,0.16668449990173945,0.4997223429492974,0.30476414901611687
0.22570352741728197,0.1637074296991357,0.49235299928338017,0.3037327357247698
0.22224354646459674,0.1607850681653979,0.48510900283150105,0.30273966486889453
0.21884398444652628,0.15791637655796992,0.4779880165150667,0.3017832230923773
0.21550368480085938,0.15510033684447638,0.470987750476459,0.30086177378038426
0.21222151511018886,0.15233595125933536,0.4641059610439644,0.29997375365040624
0.2089963665523148,0.1496222418708632,0.45734044972132937,0.29911766949400487
0.20582715336422827,0.14695825015858882,0.45068906220130045,0.29829209506260446
0.20271281231931473,0.14434303660050124,0.44414968740254124,0.29749566809098477
0.19965230221742628,0.1417756802699674,0.4377202565293201,0.2967270874523917
0.19664460338748183,0.13925527844205926,0.4313987421533956,0.29598511043946835
0.19368871720226427,0.13678094620904518,0.4251831573175231,0.2952685501654498
0.19078366560509227,0.1343518161047979,0.41907155466004364,0.294576273080319
0.18792849064805442,0.13196703773789126,0.41306202556000726,0.29390719659685055
0.1851222540415012,0.12962577743315312,0.4071526993023229,0.2932602868216949
0.18236403671449955,0.12732721788145657,0.4013417422624139,0.2926345563868673
0.17965293838596255,0.12507055779753623,0.3956273571099016,0.2920290623772115
0.17698807714617518,0.12285501158562101,0.3900077820308223,0.2914429043496023
0.1743685890484446,0.1206798090126821,0.38448128996792375,0.2908752224398407
0.17179362771061074,0.118544194889103,0.37904618787857647,0.29032519555336717
0.16926236392616148,0.11644742875658082,0.37370081600986826,0.2897920396360977
0.16677398528470186,0.11438878458307461,0.3684435471904435,0.28927500602184364
0.16432769580153583,0.11236755046462349,0.3632727861386724,0.288773379852937
0.1619227155561238,0.11038302833386199,0.3581869687867456,0.2882864785708252
0.15955828033918748,0.10843453367506178,0.35318456162029177,0.2878136504735511
0.15723364130823816,0.10652139524553977,0.34826406103314,0.28735427333716335
0.1549480646513126,0.10464295480327163,0.3434239926968441,0.28690775309823274
0.15270083125870462,0.10279856684055738,0.33866291094460865,0.2864735225947776
0.15049123640248763,0.10098759832359011,0.33397939816926114,0.28605104036302015
0.14831858942362913,0.09920942843778097,0.32937206423491916,0.2856397894875046
0.14618221342650217,0.09746344833870052,0.3248395459020217,0.285239276502224
0.1440814449806058,0.09574906090849761,0.3203805062653926,0.284849030340499
0.14201563382931037,0.09406568051766345,0.31599363420501647,0.2844686013314579
0.13998414260544947,0.0924127327920104,0.3116776438492195,0.2840975602410567
0.1379863465535846,0.09078965438473957,0.3074312740499481,0.28373549735567305
0.13602163325877314,0.08919589275347367,0.30325328786985284,0.283382021606393
0.13408940238167594,0.0876309059421368,0.2991424720808913,0.2830367597321884
0.1321890653998437,0.08609416236756423,0.2950976366741658,0.2826993554802724
0.13032004535502695,0.08458514061072936,0.2911176143807295,0.28236946884198505
0.12848177660635776,0.08310332921247826,0.2872012602030911,0.28204677532263905
0.12667370458925614,0.08164822647366371,0.2833474509571614,0.28173096524382557
0.12489528557991716,0.0802193402595765,0.27955508482439106,0.2814217430767454
0.12314598646523964,0.07881618780857075,0.2758230809138511,0.28111882680519007
0.12142528451806006,0.07743829554478526,0.2721503788340214,0.28082194731686616
0.1197326671775599,0.07608519889486626,0.268535938274052,0.28053084782180526
0.11806763183471705,0.07475644210859439,0.26497873859427123,0.2802452832966657
0.11642968562267683,0.07345157808333042,0.2614777784257185,0.27996501995377443
0.11481834521191969,0.07217016819218497,0.25803207527849037,0.2796898347338216
0.11323313661010767,0.07091178211583021,0.25464066515868544,0.27941951482115523
0.11167359496649348,0.0696759976778682,0.251302602193747,0.27915385718067875
0.11013926438078006,0.06846240068367232,0.24801695826600478,0.2788926681153953
0.10862969771632072,0.06727058476262576,0.24478282265421814,0.2786357628436823
0.10714445641755346,0.06610015121367413,0.24159930168293475,0.2783829650954262
0.10568311033156541,0.06495070885412108,0.23846551837948238,0.27813410672617855
0.10424523753368661,0.06382187387159038,0.23538061213840855,0.2778890273485389
0.10283042415701413,0.06271326967908325,0.23234373839319744,0.27764757397999684
0.10143826422577107,0.061624526773060906,0.22935406829509342,0.27740960070651005
0.10006835949240694,0.06055528259448345,0.22641078839886197,0.27717496836111577
0.09872031927834846,0.05950518139273969,0.22351310035532834,0.27694354421691003
0.09739376031831207,0.058473874092399736,0.22066022061053703,0.2767152016937627
0.09608830660809228,0.05746101816273169,0.21785138011137373,0.27648982007815215
0.09480358925574142,0.05646627748991645,0.21508582401750398,0.2762672842555439
0.09353924633605906,0.05548932225190201,0.21236281141948,0.2760474844547523
0.09229492274831172,0.054529828795839175,0.2096816150628733,0.2758303160037584
0.09107027007710458,0.053587479518039716,0.20704152107829366,0.27561567909646967
0.08986494645633028,0.05266196274640206,0.2044418287171592,0.2754034785699427
0.08867861643612035,0.05175297262524975,0.20188185009308435,0.27519362369159917
0.08751095085272817,0.050860209002529244,0.19936090992875966,0.2749860279559937
0.08636162670127302,0.0499833773193154,0.19687834530819104,0.27478060889070965
0.0852303270112772,0.04912218850157318,0.19443350543418303,0.2745772878709772
0.08411674072492989,0.04827635885412723,0.1920257513909427,0.274375989942624
0.08302056257801299,0.047445609956790535,0.1896544559116864,0.27423306167271044
0.08194149298342579,0.046629668562603255,0.1873190031511378,0.2741508170572895
0.08087923791724708,0.04582826649814037,0.18501878846280517,0.27406639165024005
0.07983350880727479,0.04504114056583747,0.1827532181809295,0.2739798612581946
0.07880402242398486,0.04426803244829497,0.18052170940699663,0.2738912990383985
0.07779050077385236,0.0435086886145164,0.17832368980071345,0.2738007756023414
0.07679267099497936,0.042762860228038824,0.17615859737534234,0.2737083591150502
0.07581026525497567,0.04203030305691541,0.17402588029730204,0.2736141153902284
0.07484302065103957,0.041310777385509534,0.17192499668993189,0.2735181079814226
0.07389067911218737,0.04060404792806155,0.169855414441334,0.27342039826938236
0.0729529873035816,0.03990988374399096,0.1678166110161936,0.27332104554578573
0.07202969653290893,0.039228058154895995,0.16580807327149705,0.2732201070934813
0.07112056265876049,0.03855834866321467,0.16382929727605133,0.2731176382633962
0.07022534600096803,0.03790053687251188,0.16187978813373105,0.2730136925482597
0.06934381125285062,0.03725440840935884,0.15995905981035996,0.27290832165327195
0.06847572739532796,0.03661975284676827,0.15806663496415285,0.2728015755638541
0.06762086761285716,0.03599636362915676,0.1562020447796355,0.27269350261060143
0.06677900921115096,0.03538403799879736,0.15436482880496927,0.27258414953156673
0.06594993353663689,0.03478257692373404,0.1525545347925994,0.2724735615319763
0.06513342589761686,0.03419178502712672,0.15077071854316104,0.27236178234150277
0.06432927548708886,0.03361147051799501,0.14901294375256469,0.27224885426918566
0.0635372753071924,0.033041445123333235,0.14728078186219684,0.27213481825611296
0.06275722209524104,0.03249069909446273,0.1455738119121619,0.2720197139259489
0.06198891625130555,0.03200742928755096,0.1438916203975038,0.2719035796334076
0.06123216176731278,0.031531766694378016,0.14223380112734008,0.2717864525107545
0.06048676615762574,0.03106358368593426,0.1405999550868433,0.2716683685124237
0.05975254039107143,0.030602754943073462,0.1389896903020127,0.27154936245783123
0.05902929882438367,0.030149157409610272,0.13740262170716844,0.2714294680724584
0.05831685913702918,0.029702670246539664,0.13583837101511587,0.2713087180272782
0.057615042267385584,0.02926317478734536,0.13429656658991873,0.2711871439766037
0.05692367235024117,0.028830554494366778,0.1327768433222254,0.27106477659441164
0.05624257665558667,0.02840469491619335,0.13127884250709276,0.27094164560921885
0.055571585528670184,0.02798548364605946,0.1298022117242541,0.27081777983756106
0.05491053233128701,0.02757281028120684,0.12834660472078108,0.2706932072161493
0.05425925338427696,0.02716656638319509,0.1269116812960822,0.2705679548327371
0.05361758791120211,0.026766645439126158,0.12549710718919482,0.27044204895577584
0.05298537798317892,0.026372942823761403,0.12410255396831582,0.27031551506289486
0.052362468464839135,0.0259853557625071,0.12272769892252677,0.2701883778682589
0.05174870696139431,0.025603783295242433,0.12137222495566657,0.2700606613488554
0.05114394376677983,0.02522812624096732,0.12003582048230199,0.2699323887697477
0.050548031812854444,0.02485828716325006,0.11871817932575834,0.2698035827083458
0.04996082661963214,0.02449417033644996,0.11741900061815813,0.2696742650777304
0.04938218624652368,0.02413568171269731,0.11613798870243452,0.2695444571490738
0.04881197124456571,0.023782728889606364,0.11487485303626843,0.26941417957319014
0.04825004460961572,0.02343522107870577,0.11362930809791671,0.2692834524012584
0.047696271736491824,0.02309306907456654,0.11240107329388604,0.26915229510474437
0.04715052037403676,0.022756185224606706,0.11118987286841686,0.26902072659456455
0.04661266058108596,0.02242448339955805,0.10999543581473836,0.268888765239513
0.046082564683320004,0.022097878964575213,0.10881749578805522,0.26875642888399154
0.04556010723098246,0.021776288750973094,0.10765579102023426,0.2686237348650612
0.045045164957444046,0.021459631028573067,0.10651006423615295,0.26849070002885933
0.044537616738595215,0.021147825478645188,0.10538006257167276,0.2683573407463873
0.04403734355304889,0.020840793167429705,0.10426553749320866,0.2682236729287132
0.0435442284431363,0.020538456520223458,0.10319433476346274,0.26808971204160414
0.04305815647667849,0.020240739296017274,0.10287150445631443,0.26795547311961443
0.042579014709517124,0.019947566562669383,0.10255131616599678,0.2678209707796483
0.04210669214878826,0.019658864672602194,0.10223371082788879,0.2676862192340278
0.041641079716923095,0.0193745612390106,0.10191863133381251,0.26755123230307076
0.041182070216360306,0.0190945851125654,0.10160602246644168,0.26741602342721726
0.040729558294954726,0.018818866358605024,0.10129583083582694,0.2672806056787078
0.04028344041206763,0.018580146032798006,0.10098800481797165,0.2671449917728381
0.03984361480532406,0.018597675046840956,0.10068249449539746,0.2670091940788074
0.03940998145802311,0.01861451090926436,0.10037925159963645,0.26687322463017515
0.03898244206718742,0.01863066735775898,0.1000782294555782,0.26673709513494426
0.03856090001223819,0.01864615789834201,0.09977938292763455,0.2666008169852826
0.0381452603242827,0.018660995807774028,0.09948266836764286,0.2664644012668971
0.0377354296560014,0.018675194136039686,0.09918804356447208,0.26632785876808385
0.03733131625212195,0.01868876570888567,0.09889546769525759,0.26619119998844865
