jointHR1,jointHR2,jointHR3,force
6.499130608916501,5.370351797447599,7.854085854114517,6.150634348091417
6.135121464502992,5.07457568235872,7.407821857489306,5.808428581715528
5.790807981227403,4.7946972154712615,6.9858176389952416,5.484702393580363
5.465136927213564,4.529868401191912,6.586773755675406,5.178468196084739
5.157111159019884,4.279286360119709,6.209460005188248,4.888790984477633
4.865786639190941,4.042190930894625,5.8527117432334475,4.614785540952971
4.5902696123094175,3.817862399476907,5.515426396700702,4.355613787329793
4.329713931126838,3.6056193490867394,5.196560162141898,4.110482278423071
4.0833185247989565,3.4048166243935856,4.8951248797195905,3.878639828629803
3.850325001675395,3.2148434038850637,4.610185073307928,3.6593752646523448
3.630015379494107,3.035121374667806,4.3408551479174555,3.452015297656676
3.4217099362112484,2.865103004257972,4.086296736084352,3.25592250851971
3.224765175056542,2.7042699042083194,3.8457161853087154,3.070493440156663
3.038571897744859,2.5521312806924445,3.6183621790471014,2.895156791238862
2.862553380097135,2.4082224674260724,3.4398342490604876,2.7293717059146148
2.6961636446291104,2.292274116926011,3.291065088350381,2.5726261544319984
2.538885824955452,2.1857396969380134,3.148430178685718,2.4569369926031444
2.3902306171305434,2.0839970957446883,3.0116785518715132,2.352545921418978
2.2497348133064916,1.986833646309214,2.88056949186618,2.25864310499683
2.129837012969368,1.8940460722934835,2.7548721161412746,2.1689536566524343
2.0387149501483197,1.8054400741972119,2.6343649741342183,2.0832904106563146
1.9513547059484901,1.7208299337227326,2.51883566209613,2.001474473204694
1.8676020435838185,1.6400381355631137,2.4095550800129244,1.9233348576632663
1.7873090340416269,1.5628950058464959,2.3547211003362576,1.8487081358790225
1.7103337983835252,1.4892383665034084,2.308475846709769,1.777438104852622
1.6365402605699888,1.4189132048559827,2.2633098712061845,1.709375468094957
1.5692319054156154,1.3517713577589454,2.219192417545992,1.6443775310213344
1.5047150209738631,1.2876712096517138,2.176093768552319,1.582307909765157
1.4428605732432558,1.226477403909135,2.1339852069304137,1.523036252820198
1.3835591752612038,1.1680605669053747,2.1005271555774048,1.4664379749465841
1.3267059189945212,1.1122970442312328,2.0703293937665,1.412394002800457
1.2722001922548127,1.0612732110657748,2.04065865680836,1.360790531771068
1.241163117346376,1.0172345592680114,2.0115021207925214,1.3115187935317856
1.2130755943014004,0.9750162973588699,1.982847423737158,1.264474833833219
1.1858598131260125,0.9346223170488285,1.9546826442045475,1.219559300087432
1.1594789110239008,0.8959606439767595,1.926996281009124,1.1766772383120803
1.1420713686742385,0.8588821092473594,1.899777233960602,1.1357378990222884
1.1254857199415202,0.8233220044287447,1.873014785587717,1.0966545516762167
1.1091907997989234,0.7892182640557533,1.846698583791003,1.0593443072976403
1.0931795280804346,0.7565113577078516,1.82081862537578,1.0237279489154183
1.0774450796133987,0.7251441864935481,1.7953652404190998,0.9897297694756116
1.0619808724119892,0.6950619837614008,1.770329077426857,0.9572774168971343
1.04678055647409,0.6662122198650361,1.745701089239593,0.9263017459563524
1.0318380031498127,0.6385445108166571,1.7214725196477187,0.8967366766998535
1.0171472950515672,0.6120105306702771,1.6976348906789658,0.8685190590978766
1.0027027164771982,0.5973516596276678,1.6741799905228414,0.8415885436635494
0.988498744319213,0.5841090280978412,1.651099862058737,0.8158874577751698
0.9745300394345471,0.5712118851413539,1.6283867919560995,0.7913606874503476
0.9607914384506859,0.5586494158865076,1.606033300316753,0.7679555643318785
0.9472779459852267,0.5464111995286784,1.5840321308310412,0.7456217576557911
0.9339847272571895,0.5344871934894195,1.562376241420962,0.7243111709821224
0.9209071010695349,0.5228677182473547,1.5410587953448835,0.7039778434786332
0.9080405331434305,0.5115434428116068,1.520073152739782,0.6845778555569142
0.8953806297858447,0.5005053708097977,1.4994128625782066,0.666069238669162
0.8829231318730197,0.4897448271638705,1.4790716550183944,0.6484118890823508
0.8706639091333033,0.4792534453281931,1.4590434341270875,0.6315674854545885
0.8585989547136842,0.4690231550654969,1.4393222709556923,0.6154994100461658
0.8467243800152253,0.4590461707373113,1.4199023969514541,0.6001726734051781
0.8350364097833478,0.44931498008655496,1.4007781976862645,0.5855538423746551
0.8235313774396831,0.4398223334909555,1.3819442068866659,0.5718626842173762
0.812205720642906,0.43056123366688553,1.363395100749469,0.5637177321674786
0.8010559770666223,0.42152492580411344,1.345125692528223,0.5557038680041297
0.7900787803830277,0.4127068881128259,1.3271309273765683,0.5478184323433342
0.7792708564416417,0.40410082276508835,1.3094058774352293,0.5400588444787965
0.76862901963299,0.3957006472137104,1.291945737150105,0.5324225991016085
0.7581501694276453,0.38750048587221325,1.2747458188095844,0.5249072631820041
0.7478312870815419,0.37949466214032807,1.257801548289828,0.517510473004708
0.7376694324989579,0.3716776907601281,1.2411084609973662,0.5102299313498618
0.7276617412450206,0.364044270488553,1.2246621979989052,0.5030634048119345
0.7178054217000117,0.3565892770727182,1.2084585023287902,0.49600872124941997
0.7080977523481635,0.34930775651497886,1.1924932154650532,0.4890637673585185
0.6985360791940203,0.34219491861531165,1.176762273965469,0.4822264863643429
0.6891178132998067,0.3352461307791074,1.1612617062554804,0.4754948758235497
0.6798404284375881,0.32845691207899624,1.1459876295603009,0.46886698553260425
0.6707014588503386,0.32182292755982084,1.1309362469738748,0.4623409155362055
0.661698497116341,0.31533998277635383,1.1161038446578062,0.45591481423068053
0.6528291921116364,0.30900401855380716,1.1014867891636761,0.44958687655743407
0.6440912470655228,0.30281110596161925,1.0870815248725625,0.44335534228180146
0.6354824177043603,0.2967574414914174,1.0728845715458653,0.4372184943528952
0.6270005104791944,0.2908393424304578,1.0588925219818686,0.43117465734027455
0.6186433808729427,0.28505324242221236,1.045102039772759,0.425222195943478
0.6104089317831167,0.2793956872061539,1.031509857157091,0.41935951357068185
0.6022951119762577,0.2742772468460999,1.0181127729629529,0.4135850509829295
0.5942999146104705,0.2693982215046964,1.0049076506373469,0.407897285000582
0.5864213758226284,0.26461656697708225,0.9918914163575131,0.40229472726879634
0.5786575733769999,0.25992994235998246,0.9790610572201671,0.39677592307902776
0.5710066253722198,0.2553360770597082,0.9664136195048147,0.3913394502436936
0.5634666890036902,0.2508327682548368,0.9539462070075231,0.38598391802129806
0.5560359593786464,0.24641787846102037,0.9416559794417068,0.3807079660894537
0.548712668381269,0.24208933319360126,0.9295401509026666,0.37551026356337636
0.5414950835853621,0.2378451187238826,0.9175959883927928,0.3703895080575479
0.5343815072122441,0.23368327992508908,0.9058208104045004,0.3653444247883751
0.5273702751316219,0.22960191820422315,0.8942119855581195,0.3603737657157781
0.5204597559033372,0.2255991895161934,0.88276693129211,0.35547630872175284
0.5136483498579798,0.22167330245673333,0.871483112603091,0.35065085682405756
0.5069344882144735,0.21782251643079698,0.8603580408333307,0.3458962374232652
0.5003166322328298,0.2140451398932517,0.8493892725034394,0.34121130158152246
0.4937932724003693,0.2103395286588231,0.8385744081881439,0.33659492333143665
0.4873629276497883,0.20670408427839337,0.8279110914331094,0.33204599901359866
0.48102414460754117,0.2031372524788584,0.8173970077109063,0.33000556670204995
0.4747754968710831,0.19963752166388982,0.8070298834142944,0.3281259558444235
0.4686155843135938,0.19620342147305003,0.7968074848851039,0.3263394952085169
0.46254303241487654,0.19283352139682264,0.7867276174770661,0.32464175483754604
0.4565564916171922,0.18952642944522868,0.7767881246510595,0.3230285064644005
0.450654636704852,0.18628079086779037,0.7669868871012788,0.32149571450426956
0.44483616620645494,0.1830952869227126,0.7573218219109323,0.3200395274462576
0.4390998018187104,0.17996863369323646,0.7477908817361496,0.3186562696263805
0.4334442878508447,0.176899580949205,0.7383920540168285,0.3173424333651024
0.4278683906886377,0.17388691105197496,0.7291233602132239,0.3160946714533245
0.4223708982771871,0.17092943790087756,0.7199828550671523,0.31490978997143637
0.4169506196215436,0.168026005919518,0.7109686258867263,0.3154231681431112
0.41160638430440366,0.1651754890802689,0.7020787918535849,0.31606133836325656
0.4063370420200868,0.16237678996539118,0.6933115033516766,0.3166555401440966
0.4011414621240664,0.15962883886327317,0.6846649413166277,0.31720789045114894
0.39601853319735925,0.15693059289835354,0.6761373166048599,0.3177204096204336
0.39096716262511066,0.1542810351933499,0.6677268693815914,0.31819502568537295
0.3859862761887518,0.15167917406247022,0.659431868526946,0.3186335785116149
0.38107481767113166,0.1491240422343505,0.6512506110594083,0.31903782374827694
0.37623174847406066,0.14661469610350564,0.6431814215759124,0.31940943660372023
0.3714560472477272,0.1441502150091386,0.6352226517078803,0.31975001545361603
0.3667467095314776,0.1417297005401994,0.6273726795925654,0.32006108528871746
0.36210274740547743,0.13935227586563104,0.6196299093590802,0.32034410100942623
0.3575231891527898,0.13701708508879273,0.6119927706285284,0.3206004505739284
0.3530070789314368,0.13472329262508087,0.6044597180276747,0.32083145800638013
0.34855347645602697,0.13247008260182092,0.5970292307156315,0.3210383862713285
0.3441614566885544,0.13025665827953703,0.589699811923057,0.321222440020288
0.33983010953799186,0.1280822414937436,0.5824699885033715,0.3213847682161317
0.3355585395683234,0.1259460721164466,0.5753383104955465,0.32152646664070006
0.33134586571467506,0.12384740753656232,0.5683033506980353,0.3216485802907957
0.32719122100722164,0.12178552215851113,0.5613637042534099,0.32175210566750967
0.3230937523025603,0.11975970691826399,0.554517988243324,0.32183799296359494
0.3190526200222609,0.11776926881615146,0.5477648412934297,0.32190714815340493
0.3150669978983127,0.11581353046578047,0.5411029231878706,0.32196043498970783
0.3111360727252037,0.11389182965842237,0.5345309144930268,0.3219986769115062
0.3072590441183797,0.11200351894226879,0.528047516190167,0.3220226588667989
0.303435124278843,0.11014796521597525,0.5216514493167199,0.3220331290540549
0.29966353776366156,0.10832454933593594,0.515341454615843,0.32203080058599987
0.2959435212621713,0.10653266573676035,0.5091162921940178,0.32201635307915977
0.29227432337766324,0.10477172206443253,0.5029747411864054,0.3219904341724492
0.28865520441435694,0.10304113882167709,0.49691559942968744,0.32195366097795197
0.28508543616947385,0.10134034902505107,0.49093768314216146,0.32190662146689775
0.28156430173022595,0.09966879787331706,0.48503982661084444,0.32184987579370994
0.27809109527555304,0.09802594242667118,0.4792208818853647,0.3217839575608705
0.2746651218824418,0.09641125129640249,0.47347971847842474,0.3217093750272273
0.27128569733667063,0.09482420434460026,0.46781522307262,0.32162661226225064
0.26795214794783095,0.09326429239351841,0.4622262992334383,0.32153613024864114
0.26466381036848435,0.09173101694424224,0.4567118671282213,0.32143836793557823
0.2614200314173156,0.09022388990430008,0.4512708632509379,0.32133374324480013
0.2582201679061559,0.0887424333238952,0.4459022401525674,0.32122265403161154
0.2550635864707472,0.08728617914042569,0.44060496617694755,0.3211054790028183
0.2519496634051337,0.0858546689309948,0.43537802520192437,0.32098257859350376
0.24887778449956327,0.08444745367260897,0.4302204163856391,0.3208542958044718
0.2458473448817911,0.08306409350978461,0.4251311539178233,0.32072095700211034
0.24285774886168204,0.08170415752929039,0.42010926677595095,0.320582872682339
0.23990840977901023,0.08036722354176307,0.4151537984861109,0.32044033820024087
0.2369987498543651,0.07905287786995152,0.4102638068884896,0.3202936344669043
0.2341282000430645,0.07776071514334015,0.4054383639073069,0.3201430286149314
0.23129619989199668,0.07649033809893246,0.4006765553251228,0.31998877463400655
0.22850219739929867,0.07524135738796267,0.3959774805613696,0.3198311139778599
0.22574564887679782,0.07401339138833096,0.39134025245501713,0.31967027614389787
0.22302601881513245,0.0729627637645226,0.3867639970512631,0.31950647922671316
0.2203427797514842,0.07194935906171607,0.3822478533921352,0.3193399304466453
0.2176954121398441,0.07095075075586121,0.37779097331092815,0.3191708266544955
0.21508340422375122,0.06996671449538705,0.3733925212303526,0.31899935481346176
0.21250625191143124,0.06899702947388542,0.3690516739643337,0.31882569245931025
0.20996345865327648,0.06804147836895058,0.3647676205233499,0.31865000813975075
0.2074545353216069,0.06709984728232499,0.360539561923241,0.3184724618339435
0.20497900009264775,0.06617192568130992,0.3563667109973929,0.31829320535302674
0.2025363783306771,0.0652575063414107,0.352248292212231,0.31811238272250675
0.2001262024742806,0.06435638529016718,0.3481835414859369,0.3179301305473258
0.19774801192466596,0.0634683617521451,0.3441717060103209,0.31774657836037545
0.1954013529359866,0.06259323809504813,0.34021204407577654,0.31756184895519923
0.19308577850762287,0.06173081977692052,0.3363038248992487,0.31737605870358754
0.19080084827838067,0.06088091529441253,0.33244632845514843,0.3171893178587435
0.1885461284225542,0.06004333613206936,0.3286388453091522,0.3170017308446603
0.18632119154781696,0.059217896712628115,0.3248806764548253,0.31681339653233176
0.1841256165948933,0.05840441434828347,0.32117113315299717,0.31662440850338014
0.1819589887389747,0.057602709192901225,0.31750953677384897,0.3164348553016696
0.17982089929283668,0.0568126041951581,0.3138952186416395,0.31624482067343773
0.1777109456116242,0.05603392505257354,0.31032751988202945,0.3160543837964641
0.17562873099926368,0.055266500166415766,0.30680579127193597,0.3158636194987644
0.1735738646164695,0.054510160597466384,0.30332939309187745,0.31567259846728
0.1715459613903091,0.053764740022605895,0.29989769498075836,0.3154813874470134
0.169544641925295,0.05303007469221288,0.2965100757930319,0.3152900494310352
0.1675695324159696,0.052306003388351785,0.2931659234582127,0.315098643841776
0.16562026456095358,0.05159236738372852,0.28986463484268077,0.3149072267039905
0.16369647547842597,0.050889010401396484,0.2866056156137309,0.31471585080977216
0.1617978076230076,0.05019577857519808,0.28338828010583716,0.3145245658759711
0.15992390870401946,0.04951252041091703,0.28021205118907466,0.3143334186943628
0.15807443160508894,0.04883908674813087,0.27707636013966663,0.3141424532748881
0.15624903430507353,0.0481753307227476,0.2739806465126178,0.31395171098227914
0.15444737980028317,0.047521107730205125,0.27092435801638715,0.31376123066636874
0.1526691360279671,0.046876275389322264,0.2679069503895697,0.3135710487863689
0.15091397579104893,0.04624069350679083,0.2649278872795513,0.31338119952938803
0.14918157668407867,0.045614224042282214,0.26198664012308504,0.31319171492344955
0.1474716210203854,0.044996731074170127,0.2590826880287844,0.31300262494525755
0.14578379576040135,0.044388080765841664,0.2562155176614618,0.31281395762294884
0.14411779244113998,0.043788141332598784,0.25338462312831234,0.3126257391340561
0.14247330710680617,0.043196783009120554,0.2505895058668819,0.31243799389890203
0.14085004024051317,0.04261387801749217,0.24782967453481564,0.3122507446696262
0.13924769669709297,0.04203930053577165,0.24510464490132966,0.312064012615047
0.1376659856369737,0.041472926667099896,0.24241393974039527,0.31187781740154485
0.1361046204611091,0.040914634409325634,0.23975708872559132,0.311692177270149
0.13456331874693833,0.040364303625150755,0.23713362832660834,0.31150710910999724
0.13304180218535983,0.03982181601277501,0.2345431017073656,0.31132262852833803
0.13153979651869946,0.03928705507703112,0.23198505862572216,0.31113874991722446
0.1300570314796563,0.03875990610100932,0.22945905533474553,0.3109554865170614
0.1285932407312083,0.0382402561181463,0.2269646544855184,0.3107728504771382
0.12714816180746352,0.03772799388478676,0.2245014250314581,0.3105908529132907
0.1257215360554343,0.037223009853190936,0.2220689421341151,0.3104095039628224
0.1243131085777271,0.036725196144997696,0.2196667870704363,0.3102288128368085
0.12292262817612393,0.03623444652511809,0.21729454714145913,0.3100487878699041
0.12154984729604684,0.03575065637606023,0.21495181558241683,0.30986943656776733
0.12019452197188502,0.035273722672676366,0.21263819147424212,0.30969076565221143
0.11885641177317308,0.03480354395732299,0.21035327965641648,0.30951278110418645
0.11753527975160682,0.03434002031542516,0.20809669064117786,0.3093354882046899
0.11623089238887852,0.03388305335143971,0.20586804052904406,0.3091588915737038
0.11494301954532166,0.03343254616520808,0.20366695092563303,0.30898299520724604
0.11367143440935107,0.03298840332869668,0.20149304885975994,0.3088078025126245
0.11241591344768237,0.03255053086310877,0.1993459667027968,0.3086333163419772
0.11117623635632257,0.03211883621636802,0.1972253420892618,0.3084595390241739
0.10995218601231554,0.03169322824096654,0.19513081783862907,0.30828647239516094
0.10874354842622908,0.031273617172167256,0.19306204187833353,0.30811411782681486
0.10755011269537623,0.03085991460656068,0.19101866716795568,0.3079424762543761
0.10637167095775457,0.030452033480959484,0.18900035162455842,0.30777154820253183
0.10520801834669263,0.030049888051636442,0.187006758049175,0.3076013338102047
0.10405895294619388,0.029653393873892875,0.18503755405440803,0.30743183285411213
0.10292427574696328,0.02926246778195296,0.18309241199313853,0.30726304477115085
0.10180379060311068,0.028877027869179783,0.18117100888831827,0.30709496867966346
0.10069730418951472,0.028496993468604126,0.17927302636383713,0.30692760339963554
0.09960462595983927,0.028122285133766023,0.1773981505764315,0.306760947471877
0.09852556810519442,0.02775282461985973,0.1755460721486437,0.3065949991762347
0.09745994551342424,0.02738853486517756,0.1737164861027818,0.30642975654887783
0.09640757572902131,0.027029339972847177,0.1719090917959034,0.3062652173987055
0.09536827891364946,0.026675165192858286,0.17012359285576983,0.3061013793229107
0.09434187780726899,0.026325936904377012,0.1683596971177792,0.3059382397217498
0.09332819768985562,0.025981582598333386,0.1666171165628605,0.3057757958125429
0.09232706634370058,0.025642030860289267,0.1648955672562964,0.30561404464295294
0.09133831401628678,0.025307211353573833,0.16319476928748977,0.3054529831035703
0.0903617733837278,0.02497705480268575,0.16151444671062865,0.30529260793983903
0.08939727951476267,0.024651492976955014,0.15985432748625628,0.30513291576335366
0.08844466983530008,0.02433045867446404,0.15821414342372586,0.30497390306255945
0.08750378409349896,0.024013885706219984,0.1565936301245172,0.30481556621288175
0.08657446432537957,0.023701708880575656,0.15499252692642917,0.304657901486314
0.0856565548209573,0.023393863987896668,0.15341057684859227,0.3045009050604881
0.0847499020908895,0.023090287785465402,0.15184752653732758,0.30434457302725304
0.08385435483362802,0.02279091798262567,0.15030312621281916,0.30418890140078714
0.08296976390306976,0.022495693226157187,0.1487771296165914,0.3040338861252626
0.08209598227669745,0.022204553085879764,0.14726929395978128,0.30387952308208666
0.0812328650242018,0.02191743804048263,0.14577937987218115,0.30372580809673955
0.08038026927658048,0.021634289463577816,0.14430715135206662,0.30357273694522857
0.07953805419570298,0.021355049609963705,0.14285237571676523,0.3034203053601767
0.07870608094433612,0.02107966160211383,0.14141482355397983,0.30326850903656344
0.07788421265662443,0.02080806941686819,0.1399942686738378,0.30311734363713483
0.0770723144090138,0.020540217872334954,0.13859048806167173,0.3029668047975015
0.07627025319161695,0.020276052614996987,0.1372032618315011,0.30281688813093366
0.07547789788001052,0.020015520107018903,0.13583237318021868,0.30266758923287784
0.07490716870258357,0.019758567613751055,0.1349419398293792,0.3025189036851975
