jointHR1,jointHR2,jointHR3,force
6.324399387027671,5.720914193810259,7.597614276419848,6.150612083702547
5.9771120616409545,5.406813386023993,7.173712393702622,5.808374831886624
5.648275727067305,5.109617546083179,6.772433954843979,5.484624129449791
5.3369209276773395,4.82842402688157,6.392588511782196,5.178371689854338
5.042128942754573,4.562378235327217,6.033047947623822,4.888681860988419
4.763029135293769,4.3106710770333345,5.692743218922198,4.614668825924271
4.498796439261272,4.07253653682695,5.370661268103739,4.355493952465203
4.248648978087714,3.847249387857766,5.065842097157667,4.1103632835745625
4.0118458075408014,3.634123022473415,4.777375994168758,3.878525161200012
3.7876847764837134,3.4325073983902112,4.504400904712285,3.6592679764042972
3.5755004993637294,3.241787094032499,4.2460999405470154,3.451918039090279
3.374662434597019,3.0613794672391554,4.016169554692885,3.2558375609647414
3.1845730633201854,2.8907329118440925,3.8171056795813216,3.070422745723165
3.004666163267786,2.729325206929541,3.6272970978714874,2.8951019807574045
2.8344051728087196,2.5766619538271747,3.447787482790262,2.729334124990983
2.673281640433684,2.4322750962039583,3.277018306740247,2.5726068877334716
2.520813755231703,2.295721518817233,3.1141533262758543,2.4244352937167606
2.376544954126681,2.166581720758337,2.958834902998203,2.2864272447902443
2.2400426018657775,2.044458559226072,2.833637993805193,2.156362827675115
2.110896739960607,1.9289760600817811,2.748578461350532,2.0332931952461863
1.9887189009806672,1.8197782916369218,2.666188387134328,1.9168491847154008
1.9163690642740574,1.7165282983126116,2.586178106019198,1.8066809858576522
1.8600442904212275,1.618907090989241,2.508479555173006,1.7024571290324033
1.805337710736425,1.526612691033262,2.4330266078902905,1.6038635260722292
1.752203194664393,1.4393592251484186,2.359755018569506,1.5545046688609252
1.7005959215444626,1.3663042891368407,2.2886023692604494,1.5088701871489227
1.6504723434086712,1.2999221527117184,2.236958945210686,1.4645347965201145
1.6017901488419637,1.2366088128724901,2.1879369314554817,1.4214617614707756
1.554508227873791,1.176225177296284,2.142390981356115,1.3796153861695108
1.5085866378712942,1.1276942510643897,2.110929749494621,1.338960984850922
1.4639865704051807,1.0959797440398593,2.0800144766735515,1.299464853063433
1.4206703190602266,1.0651595174097914,2.0496335641883237,1.2610942397460425
1.3786012481631782,1.0352083597205177,2.019775726280688,1.2238173201095435
1.3377437624016226,1.0061017719220993,1.99042997965363,1.1876031692985003
1.2980632773081773,0.9778159471115785,1.9615856333919608,1.1524217368110072
1.2595261905851007,0.9503277508594009,1.9332322792716594,1.1182438216539372
1.2220998542451573,0.9236147021018296,1.905359782441753,1.0850410482120993
1.1857525475452804,0.8976549545827267,1.877958272463221,1.0527858428103436
1.1504534506902577,0.8724272788285555,1.8510181346900914,1.0214514109483137
1.1161726192843382,0.8479110446409549,1.824530001978528,0.9910117151881678
1.082880959509298,0.8240862040917364,1.798484746710323,0.9614414536761563
1.050550204008141,0.8009332750055712,1.7728734731177997,0.9429301212876051
1.019231887917683,0.7784333249161234,1.747687509897684,0.9258098563788708
1.0043344882374812,0.7565679554817911,1.7229184031020455,0.9091547452101173
0.9896911074960995,0.7353192873476401,1.6985579092949123,0.8929486505576648
0.9752965286327389,0.7146699454405209,1.6745979889636675,0.8771760810725985
0.9611456687704127,0.6946030446847568,1.6510308001747847,0.8618221635391707
0.9472335749256082,0.6751021761261567,1.627848692463925,0.8468726163637225
0.9335554198784919,0.6561513934524826,1.6050442009508357,0.8323137242387042
0.9201064981970832,0.6377351998988542,1.5826100406699024,0.8181323139289056
0.9068822224091078,0.6198385355269277,1.5605391011076,0.8043157311293957
0.8938781193155023,0.6024467648669906,1.5388244409384582,0.7908518183469725
0.8810898264398084,0.5855456649124832,1.5174592829515192,0.7777288937591006
0.868513088607937,0.5691214134567125,1.4964370091596022,0.7649357310064111
0.8561437546530166,0.5531605777618983,1.475751156084025,0.7524615398768235
0.8439777742402702,0.5376501035509015,1.4553954102077327,0.7402959478412512
0.8320111948070756,0.522577304312357,1.435363603590099,0.7284289824026702
0.8202401586135732,0.5079298509101337,1.415649709636937,0.7168510542220565
0.8086608998993815,0.49369576148836847,1.3962478390195385,0.7055529409863553
0.7972697421421673,0.4798633916635334,1.3771522357368216,0.6945257719852234
0.7860630954140013,0.4664214249952948,1.3583572733149136,0.68376101336478
0.7750374538315983,0.45335886372811907,1.3398574511387402,0.6732504540280583
0.7641893930967085,0.4406650197958494,1.3216473909104136,0.6629861921532036
0.7535155681230843,0.4283295060816975,1.3037218332294436,0.6529606223017798
0.7430127107465944,0.41634222792630493,1.2860756342899897,0.6431664230908002
0.7326776275152076,0.40469337487676027,1.268703762690587,0.6335965454032817
0.7225071975556994,0.3933734126696581,1.251601296351961,0.6242442011132668
0.712498370514071,0.38237307544148813,1.234763419538733,0.6151028523023456
0.7026481645667985,0.371683358159842,1.218185419980996,0.6061662009457376
0.692953664500142,0.36129550926911425,1.2018626860919026,0.5974281790469959
0.6834120198548728,0.3512010235445564,1.1857907042775726,0.5888829392013322
0.6740204431338753,0.3434759502948763,1.169965056335781,0.5805248455684686
0.6647762080701944,0.33667204378164817,1.154381416940029,0.5723484652367785
0.6556766479531952,0.3300162657453086,1.1390355512057486,0.5643485599613058
0.646719154010603,0.3235048208436889,1.1239233123355223,0.5565200782590334
0.6379011738442802,0.3171340340995157,1.1090406393403256,0.5488581478455229
0.6292202099176887,0.31090034624411755,1.0943835548339287,0.5413580683977597
0.6206738180930681,0.3048003092672119,1.079948162897709,0.534015304628725
0.6122596062164453,0.29883058216294767,1.0657306470132393,0.5268254796598622
0.6039752327486645,0.2932007065251141,1.0517272680601204,0.5197843686782335
0.5958184054407035,0.2878116634844098,1.0379343623766428,0.5128878928657513
0.5877868800516144,0.2825363955919179,1.0243483398809416,0.5061321135884386
0.5798784591074897,0.27737201624730645,1.0109656822504258,0.49951322683421423
0.572090990699929,0.2723157287158571,0.9977829411573325,0.4930275578882148
0.5644223673225336,0.26736482282938734,0.9847967365583606,0.48667155623515646
0.5568705247440242,0.2625166718210835,0.9720037550364111,0.4804417906787175
0.5494334409166305,0.2577687292885201,0.9594007481925437,0.4743349446683631
0.5421091349184559,0.25311852627939746,0.9469845310863391,0.46834781182447166
0.5348956659285748,0.24856366849476186,0.934751980722921,0.4624772916530249
0.5277911322336694,0.2441018336047075,0.9227000345849725,0.4567203854415234
0.5207936702650591,0.239730768671775,0.9108256892081388,0.45107419232815293
0.5139014536650265,0.23544828767747117,0.8991259987982764,0.4455359055365933
0.5071126923813816,0.23125226914753239,0.8875980738890725,0.44010280876919644
0.5004256317892539,0.22714065387174942,0.876239080038612,0.43477227275158736
0.49383855183913855,0.22311144271435046,0.8650462365635295,0.4295417519220528
0.4873497662302631,0.21916269451111214,0.8540168153094359,0.4244087812593783
0.4809576216083791,0.2152925240495418,0.8431481394563611,0.41937097324307665
0.47466049678711636,0.2114991001286245,0.8324375823580064,0.4144260149402246
0.468456801992073,0.2077806436947881,0.8218825664136389,0.4095716652133785
0.46234497812684805,0.20413542605088264,0.8114805619715204,0.4048057520442889
0.45632349606025085,0.20056176713510732,0.8012290862627907,0.4001261699683696
0.4503908559339571,0.1970580338669552,0.7911257023647775,0.3955308776150991
0.4445455864899038,0.19362263855736972,0.7811680181927427,0.3910178953497508
0.4387862444167481,0.19025403738043212,0.7713536855191092,0.3865853030120499
0.43311141371473805,0.18695072890401043,0.7616803990192569,0.38223123774755313
0.42751970507837017,0.18371125267691624,0.7521458953429991,0.3779538919277323
0.4220097552962318,0.1805341878702198,0.7427479522109015,0.37375151115492444
0.4165802266674502,0.1774181519704744,0.7334843875346215,0.3696223923484771
0.4112298064341925,0.1743617995226997,0.7243530585604858,0.3655648819085863
0.40595720622968123,0.17136382092106717,0.7153518610355534,0.36157737395447404
0.40076116154121155,0.16842294124531565,0.7064787283954364,0.3576583086337041
0.39564043118767434,0.16553791914101568,0.6977316309731803,0.353806170499579
0.3905937968111107,0.16270754574187607,0.6891085752285298,0.35001948695368934
0.385620062381838,0.15993064363236942,0.6806076029969372,0.34629682675082524
0.38071805371670775,0.1572060658490232,0.6722267907576851,0.3426367985635741
0.3758866180100706,0.1545326949187955,0.6639642489205231,0.33903804960405587
0.3711246233770402,0.15190944193302347,0.6558181211302472,0.3354992643003519
0.3664309584086623,0.1493352456554944,0.6477865835886543,0.33201916302529566
0.3618045317386112,0.14680907166325474,0.6398678443933459,0.3285965008753979
0.3572442716210482,0.1443299115188288,0.6320601428928552,0.3252300664977694
0.3527491255192911,0.14189678197257638,0.624361749057607,0.3219186809630097
0.34831805970495694,0.13950872419397375,0.6167709628662237,0.3186611966821086
0.3439500588672513,0.1371648030306536,0.6092861137067189,0.31545649636550277
0.3396441257320909,0.13486410629408763,0.6019055597921306,0.3123034920225012
0.3353992806907561,0.13260574407084535,0.5946276875901642,0.3092011239993833
0.3312145614377824,0.13038884805840667,0.587450911266429,0.30614836005453855
0.32708902261780937,0.12821257092454785,0.580373672140871,0.3031441944690898
0.3230217354811153,0.126076085689366,0.5733944381570113,0.30018764719151597
0.31901178754757786,0.12397858512904103,0.5665117033636202,0.29727776301485
0.3150582822788066,0.12191928120047724,0.5597239874084687,0.29441361078508743
0.3111603387582056,0.11989740448599995,0.5530298350438072,0.2915942826395092
0.30731709137873087,0.11791220365731836,0.5464278156432354,0.2888188932736716
0.3035276895381166,0.1159629449579983,0.5399165227296467,0.28608657923587233
0.2997912973413517,0.11404891170372067,0.5334945735139247,0.2833964982479562
0.29610709331019486,0.11216940379963336,0.5271606084440983,0.28074782855136854
0.29247427009952665,0.1103237372741287,0.5209132907646594,0.27813976827741765
0.2888920342203398,0.10851124382841293,0.5147513060857618,0.2755715348407481
0.2853596057691795,0.10673127040125463,0.5086733619620312,0.27304236435507073
0.28187621816384956,0.10498317874832874,0.5026781874807202,0.27055151107024
0.27844111788520787,0.10326634503559451,0.4967645328589567,0.2680982468298035
0.27505356422488003,0.10158015944617049,0.490931169049837,0.2656818605481901
0.2717128290387254,0.09992402580019166,0.4851768873571283,0.26330165770673863
0.26841819650589627,0.09829736118715393,0.47950049905834713,0.2609569598678004
0.2651689628933357,0.09669959561027452,0.47390083503599634,0.258647104206186
0.2619644363255646,0.09513017164241144,0.4683767454167389,0.2563714430572567
0.2588039365596136,0.09358854409310957,0.46292709921830544,0.2541293434809889
0.25568679476496037,0.09207417968635545,0.4575507840039297,0.2519201868413721
0.25261235330833726,0.09058655674863836,0.4522467055441213,0.24974336840052413
0.24957996554327805,0.08912516490693734,0.4470137874855806,0.24759829692694058
0.24658899560427888,0.08768950479626281,0.4418509710270775,0.24548439431731112
0.2436388182054487,0.08627908777640203,0.43675721460211525,0.2434010952313676
0.2407288184435336,0.08489343565752716,0.4317314935682057,0.24134784673924725
0.23785839160519773,0.08353208043434346,0.4267727999025934,0.239324107980878
0.23502694297845156,0.08219456402846426,0.4218801419042608,0.23732934983691223
0.2322338876681196,0.08088043803871214,0.4170525439020667,0.23536305461075843
0.22947865041524268,0.07958926349906259,0.4122890459688566,0.2334247157212748
0.2267606654203152,0.0783206106439499,0.40758870364140765,0.231513837405712
0.22407937617025842,0.07707405868067574,0.4029505876460562,0.2296299344325064
0.2214342352690356,0.07584919556866077,0.3983737836298771,0.22777253182354312
0.2188247042718176,0.07464561780530043,0.3938573918972772,0.22594116458552393
0.2162502535226089,0.07346293021818728,0.38940052715187146,0.22413537745009096
0.2137103619952488,0.07230074576347645,0.38500231824351827,0.22235472462237124
0.21120451713770338,0.071158685330178,0.38066190792038945,0.22059876953762117
0.2087322147195672,0.07003637755016856,0.3763784525859568,0.21886708462566254
0.20629295868269676,0.06893345861372258,0.37215112206077827,0.21715925108281747
0.20388626099489765,0.06784957209037279,0.36797909934897244,0.2154748586510584
0.20151164150659295,0.06678436875491489,0.36386158040927064,0.2138135054041018
0.19916862781040034,0.06573750641837983,0.3597977739305449,0.21217479754018867
0.19685675510354733,0.06470864976380375,0.35578690111170164,0.2105583491812997
0.19457556605305776,0.06369747018663341,0.351828195445848,0.20896378217856992
0.1923246106636437,0.06270364563960806,0.34792090250862917,0.20739072592367122
0.19010344614823743,0.06172686048196874,0.34406427975064413,0.20583881716594576
0.18791163680110362,0.06076680533284862,0.340257596293845,0.20430769983507832
0.18574875387346895,0.059823176928705424,0.336500132731836,0.20279702486910647
0.18361437545161235,0.058895677984661776,0.3327911809339772,0.20130645004757539
0.18150808633735793,0.05798401705962353,0.329130043853217,0.19983563982965055
0.17942947793091518,0.0570879084250534,0.3255160353375637,0.19838426519701205
0.1773781481160132,0.05620707193727925,0.3219484799451191,0.1969520035013566
0.1753537011472755,0.05534123291322157,0.3184267127625984,0.19553853831634757
0.17335574753978572,0.05449012200943126,0.3149500792272544,0.19414355929385024
0.17138390396079367,0.053653475104329273,0.31151793495213753,0.19276676202430656
0.1694377931235141,0.052831033183547205,0.3081296455546183,0.19140784790109944
0.16751704368297066,0.052022542228268964,0.30478458648809914,0.190066523988772
0.16562129013384047,0.051227753106478424,0.30148214287685193,0.18874250289496303
0.16375017271025366,0.050446421467022495,0.29822170935391057,0.1874355026459352
0.16190333728750556,0.049678307636400354,0.2950026899019558,0.18614524656556888
0.1600804352856388,0.04892317651819478,0.2918244976971296,0.18487146315770456
0.15828112357485552,0.04818079749506232,0.28868655495571494,0.18361388599172065
0.15650506438271727,0.047450944333205736,0.28558829278362463,0.18237225359123543
0.15475192520309733,0.04673339508924934,0.28252915102863607,0.18114630932583045
0.15302137870684412,0.0460279320194481,0.27950857813531926,0.17993580130569195
0.15131310265412096,0.04533434149115512,0.2765260310025994,0.1787404822790751
0.14962677980838585,0.044652413896484,0.2735809748439013,0.1775601095324961
0.14796209785197506,0.04398194356809648,0.2706728830498213,0.17639444479356414
0.1463187493032585,0.04332272869705511,0.26780123705327696,0.17524325413636535
0.14469643143533145,0.04267457125267693,0.264965526197082,0.17410630788931644
0.14309484619621182,0.042037276904331566,0.26216524760389803,0.17298338054540824
0.14151370013051007,0.0414106549451253,0.25939990604851615,0.1718742506747621
0.1399527043025422,0.040794518217417086,0.25666901383241925,0.17077870083942556
0.13841157422085437,0.04018868304011236,0.2539720906605816,0.1696965175103352
0.1368900297641309,0.03959296913768462,0.25130866352045955,0.1686274909863801
0.1353877951084565,0.03900719957087484,0.2486782665631293,0.16757141531549813
0.13390459865590498,0.03843120066902017,0.2460804409865316,0.16652808821774212
0.13244017296442673,0.03786480196396724,0.24351473492077758,0.16549731101025586
0.13099425467900905,0.037307836125524574,0.24098070331548005,0.16447888853409987
0.1295665844640832,0.03676013889841079,0.23847790782906553,0.1634726290828706
0.1281569069371521,0.03622154904065733,0.23600591672003168,0.16247834433305872
0.12676497060361513,0.035691908263426164,0.23356430474011258,0.16149584927609414
0.12539052779276483,0.03517106117220237,0.2311526530293091,0.16052496215202586
0.12403333459493238,0.03465885520932377,0.22877054901275606,0.159565504384789
0.12269315079975879,0.03415514059781355,0.22641758629938624,0.15861730051901216
0.12136973983556942,0.033659770286477375,0.22409336458235507,0.15768017815831803
0.12006286870982957,0.033172599896233446,0.22179748954119627,0.15675396790507456
0.11877230795065968,0.03269348766764135,0.21952957274567453,0.1558385033015554
0.1174978315493892,0.03222229440959867,0.21728923156129754,0.15493362077246625
0.11623921690412908,0.03175888344917299,0.21507608905646314,0.15403915956880093
0.11499624476434206,0.03130312058254159,0.2128897739112081,0.1531549617129861
0.11376869917639182,0.03085487402700704,0.2107299203275228,0.15228087194528064
0.11255636743005115,0.03041401437406388,0.20859616794121183,0.15141673767139277
0.11135904000595148,0.02998041454348721,0.20648816173526208,0.1505624089112814
0.11017651052395455,0.029553949738416185,0.20440555195469878,0.14971773824910814
0.1090085756924285,0.02913449740140983,0.20234799402289205,0.14888258078430905
0.10785503525841134,0.02872193717144722,0.2003151484592951,0.14805679408375408
0.10671569195864405,0.02831615084185024,0.19830668079858405,0.14724023813496614
0.1055903514714574,0.02791702231910509,0.19632226151117194,0.14643277530036994
0.10447882236949524,0.027524437582559846,0.19436156592507436,0.14563427027254186
0.10338091607325861,0.027138284644975808,0.19242427414909824,0.14484459003043668
0.10229644680545574,0.02675845351391315,0.1905100709973353,0.1440636037965629
0.10122523154614088,0.02638483615392817,0.18861864591492683,0.14329118299508198
0.10016708998862917,0.02601732644956356,0.1867496929050867,0.14252720121080845
0.09912184449617084,0.025655820169112387,0.18490291045735163,0.14177153414908542
0.09808932005937177,0.02530021492913581,0.1830780014770419,0.14102405959651446
0.09706934425434594,0.024950410159718328,0.1812746732159045,0.14028465738251653
0.09606174720158561,0.024606307070440203,0.17949263720392294,0.13955320934170357
0.09506636152553655,0.0242678086170528,0.17773160918227138,0.13882959927703986
0.09408302231486432,0.023934819468837243,0.17599130903738658,0.13811371292377272
0.09311156708339952,0.02360724597663355,0.17427146073614685,0.1374054379141131
0.09215183573174868,0.023284996141519465,0.17257179226212993,0.13670466374264897
0.09120367050955874,0.02296797958413066,0.1708920355529353,0.13601128173247046
0.09026691597842312,0.02265610751460001,0.16923192643854912,0.13532518500199184
0.08934141897541742,0.022349292703106816,0.16759120458073462,0.13464626843245142
0.08842702857725265,0.022047449451020218,0.16596961341342809,0.1339744286360739
0.08752359606503585,0.02175049356262171,0.1643669000841248,0.13330956392487822
0.08663097488962546,0.02145834231739585,0.1627828153962343,0.13267276097163871
0.08574902063757178,0.021170914442874555,0.161217113752391,0.13247513167298797
0.08487759099763065,0.020888130088022705,0.1596695530987,0.13227692072950348
0.08401654572784134,0.02060991079715402,0.15813989486990288,0.13207815186506278
0.08316574662315684,0.02033617948436328,0.156627903935449,0.13187884827222296
0.08232505748361768,0.020066860408464504,0.15513334854645233,0.131679032625451
0.08149434408305883,0.019801879148423795,0.15365600028352255,0.13147872709394004
0.08067347413833992,0.01954116257927596,0.15219563400545066,0.13127795335402537
0.07986231727909016,0.019284638848512947,0.15075202779873842,0.13107673260121655
0.07906074501795729,0.019032237352935355,0.14932496292795383,0.13087508556185767
0.07826863072135287,0.018933834870885957,0.14791422378689822,0.13067303250443407
0.07748584958068433,0.018921449999628193,0.14651959785057267,0.13047059325053323
0.07671227858406482,0.01890849112895454,0.14514087562792932,0.13026778718547893
0.07594779648849287,0.018894982594051535,0.1437778506153904,0.13006463326864437
0.07519228379249299,0.018880947909533763,0.14243031925112892,0.12986115004346122
