jointMR1,jointMR2,jointMR3,force
6.1061453635995315,5.562637431492168,7.448325989775187,6.150612083702547
5.771556281526238,5.253770198930116,7.039128479628824,5.80837486238308
5.454726427646512,4.961565887787082,6.6516680177445355,5.484623841223181
5.154723070393237,4.685134165727091,6.284802285775966,5.178370812894337
4.8706622828303985,4.423632109118877,5.937448760274773,4.888680197336268
4.601706392515301,4.176261681843452,5.608581587541817,4.614666242987134
4.347061564539679,3.9422673481110353,5.297228621708358,4.355490376774985
4.10597551079605,3.7209338121658018,5.002468617523893,4.11035869496521
3.8777353188786132,3.5115838781353848,4.723428569772318,3.8785195873787797
3.6616653943721875,3.3135764236403027,4.459281191659812,3.659261487893772
3.457125510608677,3.1263044811178418,4.209242524917665,3.4519107445192905
3.263508960279818,2.949193421136063,3.972569674742101,3.2558296026874864
3.0802408035877624,2.7816992322778527,3.748558663052306,3.070414295747023
2.906776207892821,2.635792706964886,3.5421524320325,2.895093236961002
2.7425988740808482,2.5094496545513207,3.368720688412782,2.7293253076151465
2.5872195451221387,2.3889086624708993,3.2032934967608657,2.5725982361285955
2.4401745925301688,2.2739074628261493,3.0973022939005053,2.424427063331124
2.3010246766525495,2.164195567627263,3.003300768960858,2.2864272447908323
2.1693534769389395,2.0595337410759798,2.91199490332939,2.156362827675916
2.044766488531962,1.9596934954648053,2.823308307316623,2.033293195247236
1.927768143953054,1.8644566096352113,2.7371667545032317,1.9168491847167333
1.870630298682352,1.7736146689856922,2.6534981201568293,1.806680985859295
1.8151217595721123,1.6869686260657228,2.572232321422985,1.702457129034378
1.7611964315109168,1.6043283808347424,2.493301259238181,1.6038635260745464
1.70880952430527,1.5255123797064916,2.4166387619140703,1.5545046688365736
1.6579175155113028,1.4503472325383815,2.342180530343923,1.5088701871226082
1.6084781143390272,1.378667346763147,2.2698640847836327,1.4645347964920765
1.5604502265974587,1.310314577895941,2.2103808567104224,1.4214617614413176
1.513793920649894,1.2451378956843349,2.165163830538068,1.379615386139004
1.4684703943495538,1.2042019247228883,2.1209967485742784,1.3389609848198054
1.4244419429267443,1.1703015364343374,2.0778519996479887,1.2994648530322126
1.3816719277995455,1.1373638121471166,2.03570279868838,1.26109423971529
1.3401247462808992,1.105361491833124,1.9945231584679073,1.2238173200798947
1.299765802155808,1.0742680862820897,1.955021153798711,1.1876031692706532
1.2605614771031204,1.0440578552747493,1.9267014095653725,1.1524217367857177
1.222479102937199,1.0147057863775322,1.898863764669539,1.118243821632017
1.1854869346454757,0.9861875743408495,1.871498270534788,1.0850410481944106
1.1495541241986436,0.9584796010836074,1.8445952375441013,1.052785842797794
1.1146506951109398,0.9315589162470646,1.8181452266318945,1.0214514109418527
1.0807475177286365,0.9054032183016705,1.7921390411948117,0.9910117151887796
1.0478162852255335,0.8799908361909738,1.7665677193081184,0.9614414536848535
1.0158294902848712,0.8553007114971847,1.7414225262350918,0.938271820918446
0.9847604024477052,0.8313123811134107,1.7166949472173503,0.92195258765703
0.954583046108378,0.8080059604080212,1.6923766805345826,0.9060223200735038
0.9252721791383067,0.7853621268670452,1.6684596308226294,0.8904690915481683
0.8968032721198638,0.7633621042008791,1.6449359026393529,0.8752814311074829
0.8691524881726671,0.7419876469020128,1.62179779426817,0.8604483032415547
0.8422966633551323,0.7212210252408742,1.5990377917495726,0.8459590886900957
0.8184273246044313,0.7010450106872332,1.576648563131359,0.8318035661485027
0.8065582936610791,0.6814428617450019,1.5546229529287081,0.8179718948481843
0.79488896138732,0.6623983101886182,1.532953976785599,0.8044545979675805
0.7834153107709643,0.643895547689531,1.5116348163294466,0.7912425468325419
0.7721334253656638,0.6259192128216451,1.490658814211163,0.7783269458668437
0.7610394861576242,0.6084543784349097,1.4700194693231965,0.7656993182555838
0.7501297685474072,0.5914865393865436,1.4497104321884065,0.7533514922861234
0.739400639442162,0.5750016006196936,1.4297255005129386,0.7412755883330101
0.7288485544538235,0.5622415831243949,1.4100586148965621,0.7294640064550307
0.7184700551990029,0.5509499137415897,1.3907038546941937,0.7179094145741485
0.7082617666964832,0.5399180916169011,1.3716554340226113,0.7066047372076198
0.698220394858397,0.5291388169068577,1.3529076979066057,0.6955431447260266
0.6883427240713405,0.5186050385288179,1.3344551185590676,0.6847180431113494
0.6786256148638263,0.5083099444758685,1.3162922917897295,0.674123064190504
0.669066001656639,0.49824695253724327,1.2984139335375156,0.6637520563210157
0.6596608905927939,0.48840970140667406,1.2808148765216583,0.6535990755066675
0.6504073574439472,0.4787920421618631,1.2634900670069404,0.6436583769220929
0.6413025455902297,0.469388030099006,1.2464345616786265,0.6339244068263267
0.6323436640706126,0.4601919169070039,1.2296435246228192,0.6243917948463449
0.6235279857010264,0.4511981431666764,1.2131122244081682,0.6150553466125728
0.6148528452575799,0.4424013311609387,1.1968360312650153,0.6059100367292465
0.6063156377223287,0.4337962779825174,1.1808104143582363,0.5969510020633736
0.5979138165891542,0.42537794892637504,1.1650309391501836,0.5881735353368513
0.589644892227418,0.41714147115457634,1.149493264850289,0.579573079007079
0.5815064303011453,0.40908212762186535,1.1341931419480282,0.5711452194221306
0.5734960502415966,0.40119535125074257,1.1191264098260847,0.562885681237249
0.5656114237711637,0.3934767193453187,1.1042889944506764,0.5547903220800959
0.5578502734766229,0.38592194823369674,1.0896769061361444,0.5468551274528042
0.55021037142985,0.37852688812907953,1.0752862373810095,0.5390762058594833
0.5426895378541878,0.3712875182002332,1.0611131607728255,0.5314497841483962
0.5352856398347268,0.36419994184234483,1.0471539269592673,0.5239722030585525
0.527996590070833,0.3572603821397079,1.03340486268299,0.5166399129609891
0.520820345669327,0.35046517751204154,1.0198623688779036,0.509449469785471
0.5137549069767798,0.34381077753660916,1.0065229188245994,0.5023975311238257
0.5067983164494592,0.33729373893864745,0.9933830563627574,0.4954808525015454
0.4999486575595153,0.3309107217429377,0.9804393941584488,0.4886962838097113
0.49320405373605614,0.3246584855796717,0.9676886120243415,0.48204076588968814
0.4865626673398148,0.31853388613805955,0.9551274552908817,0.47551132726340534
0.4800226986701667,0.31334572465541144,0.9427527332266195,0.469105081002398
0.4735823850033021,0.30880919741734736,0.9305613175059038,0.46281922172912
0.4672399996604102,0.30434547215892216,0.9185501407222565,0.45665102274435365
0.460993851104777,0.2999532345756868,0.9067161949457945,0.4505978332748488
0.45484228206674054,0.2956311982975546,0.8950565303231349,0.44465707583561437
0.44878366869549435,0.29137810415532917,0.8835682537182874,0.43882624370154777
0.44281641973676666,0.28719271947099334,0.8722485273930853,0.4331028984833623
0.43693897573544305,0.28307383737086267,0.8610945677257771,0.4274846678030053
0.4311498082622388,0.279020276120742,0.8501036439664421,0.42196924306400463
0.42544741916356044,0.27503087848226426,0.83927307702796,0.41655437731239425
0.41983033983373247,0.27110451108961664,0.8286002383112987,0.4112378831840909
0.414297130508796,0.2672400638458988,0.818082548563949,0.40601763093478327
0.40884637958111947,0.2634364493383847,0.8077174767703651,0.4008915465485966
0.4034767029340894,0.25969260227199054,0.7975025390733279,0.3958576099219681
0.39818674329618,0.25600747892027914,0.78743529772518,0.39091385311934546
0.3929751696137267,0.2523800565933596,0.7775133600679276,0.3860583586974826
0.387840676441755,0.24880933312206488,0.7677343775412415,0.38128925809526243
0.38278198335224306,0.24529432635781712,0.7580960447174254,0.3766047300861224
0.37779783435921793,0.2418340736876124,0.748596098362458,0.3720029992903018
0.3728869973601113,0.2384276315635815,0.7392323165222483,0.3674823347442596
0.3680482635928215,0.23507407504660272,0.7300025176332732,0.3630410485247406
0.3632804471079488,0.23177249736346583,0.7209045596568064,0.3586774944250879
0.3585823842556956,0.2285220094771051,0.7119363392359654,0.3543900666815103
0.3539529331869362,0.22532173966943836,0.7030957908748456,0.3501771987471292
0.34939097336798697,0.22217083313636937,0.6943808861390259,0.34603736211172403
0.34489540510861894,0.21906845159452498,0.685789632876767,0.341969065165202
0.3404651491028784,0.21601377289931895,0.6773200744602412,0.3379708521029031
0.33609914598229174,0.2130059906739476,0.6689702890461637,0.33404130187094794
0.33179635588105144,0.2100443139489407,0.660738388855211,0.3301790271499133
0.3275557580127928,0.2071279668119025,0.6526225194696431,0.326382673375206
0.32337635025858613,0.2042561880670951,0.6446208591485612,0.32265091779257743
0.3192571487657835,0.20142823090452877,0.636731618160258,0.31898246854729817
0.31519718755737214,0.19864336257823528,0.6289530381311301,0.31537606380557714
0.3111955181515003,0.19590086409341623,0.621283391410653,0.31183047090687643
0.30725120919085197,0.19320002990216711,0.6137209804519257,0.3083444855458382
0.30336334608156135,0.19054016760749115,0.6062641372073176,0.3049169309825933
0.2995310306413673,0.1879205976753266,0.5989112225387607,0.30154665728028573
0.295753380756719,0.18534065315432396,0.5916606256422539,0.2982325405686924
0.2920295300485564,0.18279967940311698,0.5845107634861528,0.29497348233287496
0.2883586275464971,0.18029703382484252,0.577460080262844,0.2917684087258466
0.28473983737117126,0.17783208560867392,0.5705070468534055,0.2886162699042833
0.28117233842445716,0.1754042154781401,0.5636501603048762,0.2855160393863519
0.27765532408737675,0.17301281544601282,0.5568879433197731,0.28246671343077134
0.27418800192542003,0.17065728857555051,0.5502189437574958,0.27946731043626316
0.27076959340107604,0.16833704874789773,0.5436417341472841,0.27651687036058203
0.2673993335933544,0.16605152043544458,0.537154911212397,0.27361445415835706
0.26407647092409064,0.16380013848095804,0.530757095405193,0.270759143237009
0.26080026689083546,0.1615823478823054,0.5244469304528125,0.2679500389300362
0.25756999580613343,0.15939760358259514,0.5182230829131556,0.2651862619870003
0.2543849445430061,0.15724537026556729,0.512084241740878,0.2624669520795678
0.2512444122864586,0.15512512215607233,0.5060291178631224,0.25979126732299274
0.24814771029083685,0.15303634282548262,0.5000564437647204,0.25715838381245376
0.24509416164286596,0.15097852500188602,0.494164973082605,0.2545674951736824
0.24208310103021008,0.14895117038491712,0.48835348020918645,0.2520178121273488
0.2391138745153949,0.1469537894650873,0.4826207599044443,0.24950856206668537
0.23618583931494294,0.14498590134747763,0.4769656269165081,0.24703898864786278
0.23329836358357509,0.14304703357966675,0.47138691561049506,0.24460835139264206
0.230450826203337,0.1411367219837671,0.4658834796053881,0.24221592530285627
0.22764261657751408,0.13925451049244936,0.46045419141874455,0.23986100048628872
0.22487313442920273,0.1373999509888389,0.4550979421190253,0.23754288179353472
0.22214178960441078,0.13557260315017144,0.44981364098535015,0.23526088846545268
0.21944800187956306,0.13377203429509982,0.4446002151744859,0.23301435379082422
0.2167912007732933,0.13199781923454645,0.4394566093948795,0.23080262477386132
0.21417082536240642,0.13024954012600154,0.4343817855875589,0.22862506181121256
0.21158632410189973,0.12852678633116793,0.4293747226137252,0.22648103837813566
0.2090371546489349,0.1268291542768601,0.4244344159488642,0.22436994072351468
0.206522783690656,0.1251562473190641,0.4195598773832201,0.22229116757341952
0.20404268677575207,0.1235076756100722,0.4147501347284648,0.2202441298429095
0.20159634814966668,0.12188305596860644,0.4100042315304153,0.2182282503558023
0.19918326059335884,0.1202820117528487,0.4053212267876436,0.21624296357213676
0.1968029252655237,0.11870417273629824,0.40070019467583906,0.21428771532307
0.19445485154818382,0.11714917498637978,0.3961402242777803,0.2123619625529601
0.19213855689556425,0.11561666074572752,0.391640419318781,0.21046517306839552
0.18985356668616868,0.11410627831607373,0.38719989790747644,0.208596825293941
0.18759941407797437,0.11261768194467187,0.382817792281823,0.20675640803438017
0.1853756398666682,0.11115053171318773,0.3784932485601864,0.20494342024324297
0.1831817923468471,0.10970449342899247,0.3742254264973963,0.2031573707974133
0.18101742717610914,0.10827923851879567,0.3700134992456521,0.2013977782776242
0.17888210724196346,0.10687444392455647,0.365856653120161,0.199664170754648
0.17677540253148988,0.10548979200161429,0.36175408736940606,0.19795608558100586
0.17469689000367988,0.10412497041898228,0.3577050139499256,0.19627306918801815
0.17264615346439466,0.10277967206174687,0.3537086573055095,0.19461467688803277
0.17062278344387566,0.10145359493552164,0.34976425415070267,0.19298047268166593
0.16862637707674674,0.1001464420729013,0.34587105325852385,0.1913700290699056
0.16665653798444724,0.09885792144186772,0.3420283152522974,0.1897829268709239
0.16471287616003893,0.09758774585609731,0.3382353124015087,0.1882187550414584
0.16279500785532913,0.09633563288712377,0.3344913284215918,0.18667711050262203
0.1609025554702563,0.09510130477830919,0.3307956582775595,0.18515759797001002
0.1590351474444841,0.09388448836057994,0.32714760799138887,0.1836598297879744
0.15719241815115245,0.09268491496988401,0.3235464944530848,0.18218342576794322
0.15537400779273502,0.09150232036632688,0.31999164523533286,0.18072801303066488
0.15357956229895503,0.09033644465494711,0.3164823984116636,0.17929322585226387
0.15180873322671068,0.08918703220809077,0.3130181023780578,0.17787870551399515
0.15006117766196492,0.08805383158934699,0.3095981156779084,0.17648410015559285
0.14833655812355445,0.08693659547900734,0.306221806830272,0.1751090646321075
0.1466345424688739,0.08583508060101325,0.3028885541613373,0.17375326037413508
0.14495480380139308,0.08474904765135605,0.2995977456390402,0.17241635525134016
0.14329702037996586,0.08367826122789601,0.29634877871075926,0.1710980234391802
0.14166087552989026,0.08262248976156661,0.2931410601440254,0.16979794528874315
0.14004605755568095,0.08158150544893311,0.28997400587018185,0.16851580719961098
0.13845225965551586,0.0805550841860731,0.28684704083093027,0.16725130149566464
0.1368791798373195,0.07954300550374921,0.28375959882770574,0.16600412630375178
0.13532652083644786,0.07854505250384408,0.2807111223738168,0.16477398543513738
0.1337939900349384,0.07756101179703007,0.27770106254929705,0.16356058826966363
0.13228129938229208,0.07659067344164394,0.2747288788584088,0.1623636496425442
0.13078816531775345,0.07563383088374132,0.27179403908974353,0.16118288973372386
0.12931430869405622,0.0746902808983031,0.2688960191788692,0.16001803395973468
0.12785945470260343,0.07375982353156896,0.26603430307346665,0.15886881286798335
0.12642333280005033,0.07284226204447303,0.2632083826009106,0.15773496203340368
0.12500567663626078,0.07193740285715611,0.2604177573382367,0.15661622195741587
0.12360622398360746,0.07104505549453344,0.25766193448445573,0.15551233796912947
0.12222471666758744,0.07016503253289175,0.2549404287351591,0.15442306012873355
0.1208609004987253,0.06929714954749583,0.2522527621593753,0.1533481431330182
0.1195145252057366,0.06844122506118111,0.2495984640786273,0.1522873462229715
0.11818534436992525,0.06759708049391211,0.24697707094815136,0.1512404330934005
0.11687311536078918,0.06676454011328486,0.24438812624023054,0.15020717180452486
0.11557759927280867,0.0659434309859544,0.24183118032960182,0.14918733469549297
0.11429856086339327,0.06513358292996674,0.23930579038089506,0.14818069829977276
0.11303576849196312,0.06433482846797628,0.23681152023806784,0.14718704326237117
0.11178899406014112,0.0635470027813303,0.23434794031578776,0.1462061542588359
0.11055801295303352,0.06276994366500216,0.2319146274927355,0.14523781991599666
0.10934260398157647,0.062003491483355155,0.22951116500678004,0.14428183273440273
0.10814254932592648,0.06124748912672051,0.2271371423519979,0.14333798901241537
0.10695763447987433,0.06050178196877132,0.22479215517749496,0.14240608877191557
0.10578764819626071,0.059766217824677226,0.22247580518800003,0.14148593568558737
0.10463238243337436,0.05904064691002325,0.22018770004619115,0.1405773370057396
0.10349163230231218,0.05832492180047677,0.21792745327672614,0.13968010349462878
0.10236519601528246,0.057618897392187896,0.2156946841719416,0.1387940493562477
0.10125287483483206,0.05692243086290799,0.2134890176991895,0.13791899216954498
0.10015447302397956,0.05623538163381192,0.2113100844097786,0.13705475282304155
0.09906979779723568,0.05555761133200954,0.20915752034949264,0.13620115545081168
0.09799865927249449,0.05488898375373291,0.20703096697065293,0.13535802736979644
0.09694087042377678,0.054229364828185245,0.2049300710456965,0.1345251990184187
0.09589624703481026,0.05357862258203888,0.20285448458224398,0.13370250389646907
0.09486460765342902,0.05293662710456859,0.20080386473962375,0.13288977850623432
0.09384577354677712,0.052303250513408506,0.19877787374682976,0.13208686229483854
0.09283956865729984,0.05167836692091943,0.19677617882188403,0.1312935975977704
0.09184581955950785,0.05106185240115507,0.19479845209257762,0.13050982958356921
0.0908643554174989,0.05045358495741531,0.19284437051856473,0.1297354061996423
0.0898950079432228,0.04985344449037454,0.1909136158147846,0.12897017811918982
0.0889376113554749,0.0492613127667747,0.1890058743761862,0.12821399868921157
0.08799200233960422,0.04867707338867089,0.18712083720373163,0.12746672387956978
0.08705802000792287,0.04810061176321995,0.18525819983165603,0.1267282122330874
0.08613550586080262,0.04753181507300053,0.18341766225595846,0.1259983248166559
0.08522430374844617,0.04697057224685508,0.18159892886410245,0.1252769251733314
0.08432425983331987,0.046416773931242994,0.17980170836590315,0.12456387927539792
0.0834352225532356,0.04587031246209622,0.17802571372558296,0.12385905547837472
0.08255704258506918,0.04533108183716611,0.17627066209496633,0.12316232447594865
0.08168957280910377,0.0447989776888536,0.1745362747478032,0.1224735592558097
0.08083266827398572,0.04427389725751285,0.17282227701518993,0.1217926350563716
0.07998618616228242,0.04375573936521898,0.1711283982220786,0.12111942932435683
0.07914998575662974,0.04324440438999222,0.16945437162484533,0.1204538216732281
0.07832392840645877,0.04273979424046842,0.16779993434990392,0.11979569384244744
0.07750787749529081,0.04224181233100888,0.1661648273333456,0.11914492965754545
0.07670169840859004,0.04175036355723988,0.1645487952615834,0.11850141499098332
0.07590525850216323,0.04126535427201544,0.16295158651298713,0.11786503772378991
0.07511842707109712,0.040786692261793656,0.1613729531004875,0.1172356877079583
0.07434107531922232,0.0403142867234203,0.1598126506151345,0.11661325672958493
0.07357307632909538,0.039848048241311274,0.1582704381705926,0.11599763847273548
0.07281430503248831,0.039387888765026635,0.15674607834855414,0.11538872848402254
0.07206463818137682,0.03893372158722963,0.15523933714505755,0.11478642413787998
0.07132395431941807,0.03848546132202235,0.15374998391769146,0.11419062460251851
0.07059213375390891,0.038043023883652216,0.15227779133367148,0.1136012308065491
0.0698690585282157,0.037606326465581486,0.15082253531877177,0.11301814540625972
0.06915461239466739,0.03717528751991456,0.14938399500709898,0.11244127275353173
0.06844868078790312,0.03674982673717431,0.14796195269169088,0.11187051886438248
0.06775115079866639,0.036329865026423436,0.14655619377592632,0.11130579138812172
0.06706191114803736,0.03591532449572277,0.14516650672573417,0.11074699957710768
0.06638085216209577,0.035506128432921225,0.14379268302258397,0.11019405425709208
0.06570786574700624,0.03510220128677122,0.1424345171172452,0.10964686779814031
0.06504284536451871,0.034703468648363545,0.14109180638430563,0.10910535408611587
0.06438568600787642,0.034309857232875995,0.13976435107742868,0.1085694284947174
