jointMR1,jointMR2,jointMR3,force
5.565569715328758,5.55456011295356,7.423712765123694,6.044544223253816
5.264015896709667,5.252883671126734,7.011722717874944,5.721273199803454
4.9784221167445315,4.967200328286318,6.621707408109181,5.415009732249096
4.70795087239346,4.696670180765882,6.252510326404845,5.12486319522563
4.451808470874338,4.440497277566953,5.903035529724116,4.849989511918038
4.223723192680489,4.197927323494464,5.572244475510942,4.589588722983047
4.022910152538714,3.968245502251395,5.259153021151853,4.34290268240197
3.8312809986112777,3.7507744132290983,4.9628285801648895,4.109212873638239
3.6484214973863662,3.5448721160567778,4.70169659465615,3.8878383398190253
3.4739359995067347,3.3499302772835216,4.472857160095846,3.678133721988208
3.3074466078258187,3.1653724138600627,4.2545834336337585,3.479487399788732
3.1485923826719544,2.9906522283658297,4.046397059619212,3.2913197292268648
2.997028582657303,2.825252031190737,3.8478411764018743,3.113081372450079
2.8524259394424365,2.668681245131285,3.6584794534944503,2.9442517147348175
2.7144699649385537,2.5204749880975688,3.477895171809815,2.7901423430038763
2.5828602894971424,2.38019272985248,3.3056903450466883,2.645149419297373
2.457310029701754,2.26074828008644,3.1414848803840627,2.5078198919486914
2.3375451844384236,2.155816725167724,2.9849157767267993,2.3777515544650756
2.2233040579804744,2.055661365507105,2.8356363588234172,2.2545632392845953
2.1143367088799367,1.9600658363580936,2.694547602059325,2.150119793056602
2.010404423511781,1.8688235598513185,2.5658412889601414,2.051745888799637
1.9112792131687606,1.7817373025262957,2.453434470663584,1.9585698909199043
1.8167433336539132,1.6986187528642995,2.3473318955191087,1.8703190631310336
1.7265888263648494,1.6192881179182161,2.271328474736254,1.7867349336491898
1.6406170799088813,1.543573738176144,2.1984848978613942,1.7075725500466528
1.558638411331061,1.4713117198345205,2.15047515408211,1.632599773012866
1.4810040382940117,1.4023455836938137,2.115086375387245,1.5615966069917684
1.412066995012725,1.336525929925393,2.0805539555887815,1.4943545657702448
1.3511653412306772,1.2737101179921622,2.0468487587648605,1.4306760711930362
1.292966627947717,1.2137619610379682,2.0139428375251884,1.3703738832746986
1.2436364258137689,1.1565514340917613,1.9818093811806896,1.3132705600694758
1.204178811346335,1.1019543954620505,1.9504226662189506,1.2591979457455256
1.1662407324513815,1.049852320725423,1.919758008982373,1.2079966853910264
1.1297573504055658,1.000132048739852,1.8897917204505563,1.1595157651565788
1.0946666944577874,0.9526855391392511,1.8605010630328485,1.113612076411139
1.0609095337030174,0.9074096407902962,1.8318642092812008,1.0701500026578066
1.028429254690999,0.8737363820469068,1.8038602024374932,1.0290010280212116
0.9971717445131718,0.8501689724581409,1.7764689187333274,0.9900433661802848
0.9670852791226523,0.8273683738976898,1.7496710313639612,0.9531616086789875
0.9381204166530628,0.8053044206424105,1.723447976061559,0.9182463916032971
0.9220783552733316,0.7839483036213423,1.6977819181962819,0.8851940796655667
0.9071372402684519,0.7632725046502681,1.6726557213369362,0.8539064667874194
0.8925417959846917,0.7432507339755686,1.6480529172059615,0.8242904923198009
0.8782806953130748,0.7238578709578546,1.6239576769664474,0.7962579720837687
0.864343065304493,0.705069907734612,1.6003547837816665,0.7799558825058936
0.850718467479114,0.6868638957094123,1.5772296065902642,0.7643869910353565
0.8373968790103465,0.6692178947231014,1.5545680750428001,0.7491759993326395
0.824368674744284,0.6521109247698464,1.5323566555477557,0.7343127981599922
0.8116246100172805,0.6376121858032983,1.5105823283774529,0.7197876296654998
0.7991558042359994,0.6244388420412773,1.4892325657865404,0.7055910732239603
0.7869537251858607,0.6115804594513122,1.4682953110978259,0.6917140318978143
0.7750101740353407,0.599027821143763,1.4477589587122526,0.6781477194897763
0.7633172710050367,0.5867720414259315,1.4276123350017556,0.6648836481601653
0.751867441671791,0.5748045519396097,1.4078446800455804,0.651913616583174
0.7406534038795112,0.5631170884333413,1.3884456301723977,0.6392296986175354
0.7296681552295792,0.551701678138937,1.3694052012722595,0.6268242324681776
0.7189049611249652,0.5405506277232741,1.3507137728440186,0.6146898103165575
0.7083573433433128,0.529656511787849,1.3323620727453986,0.6028192683984025
0.6980190691153729,0.5190121618898833,1.3143411626143564,0.5912056775085743
0.6878841406862201,0.5086106560600899,1.296642423931782,0.5798423339137204
0.6779467853376937,0.49844530879341264,1.279257544696928,0.5687227506542718
0.6682014458514683,0.4885096614902187,1.2621785066882358,0.5578406492182046
0.6586427713930902,0.4787974733265271,1.2453975732834497,0.5473105836125801
0.6492656087981781,0.4693027125328998,1.2289072778140757,0.5372210267023098
0.6400649942428457,0.46001954806262124,1.212700412430369,0.5273397659813986
0.6310361452811963,0.4509423416307401,1.1967700174540816,0.5176616635878779
0.6221744532335097,0.442065640106441,1.1811093711972394,0.508181738425533
0.6134754759094729,0.43338416824207304,1.1657119802261704,0.49889516045892596
0.604934930651509,0.42489282172297216,1.1505715700509604,0.4897972452392055
0.5965486876839272,0.41658666052299076,1.1356820762213755,0.480883448650874
0.5883127637542509,0.4084609025513727,1.1210376358111445,0.4721493618701053
0.5802233160536983,0.4005109175773214,1.1066325792733283,0.4635907065256267
0.5722766364043674,0.3927322214192598,1.092461422650231,0.4552033300535564
0.5644691457012367,0.38512047038642283,1.0785188601220992,0.44698320123797536
0.5567973885976224,0.37767145596100915,1.0647997568795107,0.43892640592935983
0.5492580284232462,0.37038109970970357,1.0512991423050742,0.431029142933351
0.5418478423245465,0.3632454484139067,1.0380122034506702,0.4232877200626576
0.5345637166173345,0.3562606694085373,1.0249342787971005,0.4156985503452099
0.5274026423423365,0.34942304611975306,1.0120608522835943,0.40825814838197144
0.5203617110145897,0.3427289737924041,0.9993875475951708,0.4009631268481076
0.5134381105580609,0.3361749553984754,0.9869101226964188,0.3938101931314844
0.5066291214172423,0.3297575977181938,0.9746244646007389,0.3884074716896064
0.49993211283785166,0.3234736075858785,0.9625265843646013,0.38310466684282946
0.49334453930911304,0.31731978829298735,0.9506126122968319,0.3778915226017827
0.48686393716043,0.31129303614118176,0.9388787933733921,0.37276591404962095
0.4804879213055884,0.30539033713856667,0.9273214828485324,0.367725787316144
0.4742141821279301,0.2996087638326009,0.9159371420536253,0.36276915668649773
0.46804048250023234,0.29394547227346984,0.9047223343753514,0.3578941018363914
0.46196465493330885,0.28839769910202095,0.893673721405306,0.3530987651881873
0.45598459884761594,0.2829627587566371,0.8827880592534275,0.3483813493824565
0.45009827796240187,0.2779861663902663,0.8720621950180066,0.343740114859858
0.4443037177971838,0.2740756885235367,0.8614930634053468,0.3402399511816598
0.43859900328056617,0.2702296306272719,0.8510776834924605,0.33848745668715785
0.4329822764616432,0.26644656644800124,0.8408131556264837,0.33683518871441753
0.42745173431943434,0.2627251141716461,0.8306966584547696,0.3352775909006409
0.42200562666600977,0.25906393469036526,0.8207254460798938,0.3338094037594853
0.41664225413915545,0.25546172994372685,0.8108968453340605,0.33242564905273486
0.41135996628061205,0.2519172413309143,0.8012082531676472,0.33112161498024595
0.40615715969610144,0.24842924819082882,0.7916571341468597,0.3298928421454025
0.40103227629352073,0.24499656634708353,0.7822410180556928,0.32914518118348535
0.3959838015958492,0.2416180467150226,0.772957497597603,0.3300296673200356
0.39101026312546433,0.23829257396802814,0.7638042261925195,0.3308582078316674
0.3861102288567133,0.23501906526049401,0.75477891586499,0.3316337486962012
0.3812823057337261,0.2317964690049675,0.7458793352194737,0.33235908211513565
0.3765251382505911,0.22862376370107065,0.7371033074989493,0.33303685453717635
0.37183740709114316,0.22549995681391802,0.7284487087231886,0.33366957426308197
0.36721782782573625,0.22242408369984887,0.7199134659032091,0.33425961865368103
0.3626651496624909,0.21939520657739228,0.71149555532856,0.33480924096176634
0.35817815425061794,0.21641241354147553,0.7031930009242788,0.33532057680749705
0.35375565453352803,0.21347481761896855,0.6950038726744494,0.33579565031591607
0.34939649364953806,0.21058155586375474,0.6869262851094724,0.3362363799342084
0.34509954387808367,0.20773178848958687,0.678958395854266,0.3366445839454225
0.34086370562943935,0.20492469803906962,0.6710984042347403,0.3370219856944854
0.33668790647603924,0.2021594885871891,0.6633445499400079,0.33737021854153804
0.33257110022357356,0.19943538497786586,0.6556951117379166,0.3376908305568078
0.32851226602012007,0.19675163209209465,0.6481484062415832,0.33798528897051594
0.3245104075016451,0.194107494146281,0.640702786724711,0.33825498439059865
0.3205645519722853,0.19150225401945828,0.6333566419835968,0.3385012348003592
0.3166737496178893,0.18893521260812104,0.6261083952437854,0.3387252893475381
0.31283707275137,0.18640568820746786,0.6189565031094548,0.33892833193567995
0.30905361508847884,0.18391301591790551,0.6118994545536918,0.33911148462812113
0.3053224910526776,0.18145654707570882,0.6049357699478888,0.33927581087436953
0.3016428351078429,0.1790356487067871,0.5980640001285742,0.3394223185681512
0.2980138011175919,0.1766497030025511,0.5912827255000879,0.33955196294590073
0.29443456173007526,0.17429810681691896,0.5845905551715398,0.3396656493340289
0.2909043077871326,0.17198027118354633,0.5779861261266037,0.3397642357528522
0.2874222477567546,0.16969562085239795,0.5714681024247272,0.3398485353846681
0.28398760718784505,0.16744359384483096,0.5650351744324287,0.33991931891306193
0.28059962818631745,0.16522364102637874,0.5586860580833897,0.33997731674016973
0.27725756891160896,0.16303522569648024,0.5524194941661245,0.34002322108825767
0.27396070309272824,0.1608778231944147,0.5462342476380582,0.3400576879916606
0.2707083195630001,0.15875092052074832,0.5401291069648773,0.3400813391848003
0.26749972181270143,0.1566540159736243,0.5341028834841133,0.34009476389170146
0.264334227558823,0.15458661879925376,0.5281544107919078,0.34009852052215017
0.2612111683312216,0.15254824885600357,0.5222825441520007,0.3400931382793616
0.25812988907446366,0.15053843629149213,0.5164861599259989,0.3400791186837808
0.2550897477646895,0.14855672123214206,0.5107641550240434,0.3400569370173827
0.252090115040858,0.14660265348465132,0.5051154463750056,0.34002704369263015
0.2491303738497611,0.14467579224887658,0.4995389704154132,0.33998986555001176
0.24620991910422213,0.1427757058416437,0.49403368259631675,0.339945807087893
0.2433281573539207,0.14090197143101743,0.48859855690735987,0.33989525162820755
0.24048450646830855,0.13905417478058776,0.4832325854173267,0.33983856242133903
0.23767839533110782,0.13723191000334764,0.4779347778305074,0.3397760836933641
0.23490926354590236,0.13543477932475598,0.47270416105820523,0.3397081416386657
0.2321765611523566,0.13366239285459733,0.46753977880478836,0.33963504536076505
0.2294797483526167,0.1319143683672689,0.46244069116766906,0.3395570877640758
0.22681829524746694,0.1301903310901377,0.4574059742506573,0.3394745463991392
0.2241916815818345,0.128489913499631,0.45243471979013705,0.3393876842637681
0.22159939649925486,0.12681275512473392,0.4475260347935439,0.3392967505623987
0.21904093830492305,0.1251585023575885,0.4426790411896573,0.33920198142583546
0.21651581423697694,0.1235268082708896,0.4378928754902127,0.33910360059344624
0.21402354024567283,0.12191733244180616,0.43316668846240103,0.3390018200597754
0.21156364078012574,0.12032974078214495,0.42849964481179925,0.338896840687428
0.20913564858230643,0.11876370537450723,0.4238909228753367,0.338788852787981
0.2067391044879966,0.11721890431418544,0.4193397143238742,0.3386780366725973
0.20437355723441772,0.11569502155656561,0.41484522387404854,0.3385645631739149
0.2020385632742625,0.1141917467698079,0.4104066690089745,0.33844859414071593
0.19973368659586882,0.11270877519258957,0.4060232797075054,0.33833028290679124
0.19745849854928807,0.11124580749670263,0.4016942981816778,0.3382097747353494
0.19521257767800929,0.1098025496543095,0.3974189786220397,0.33808720724024466
0.19299550955611344,0.10837871280966663,0.39319658695056225,0.33796271078523277
0.19080688663063866,0.10697401315513308,0.3890264005808297,0.3378364088624032
0.18864630806894983,0.10558817181129534,0.38490770818523057,0.33770841845086796
0.18651337961091402,0.1042209147110387,0.3808398094688985,0.3375788503567466
0.18440771342568946,0.10287197248740734,0.3768220149501227,0.33744780953541254
0.1823289279729491,0.10154108036510515,0.37285364574700064,0.3373153953969338
0.18027664786836264,0.10022797805548525,0.36893403337009434,0.33718170209558074
0.1782505037531697,0.09893240965489855,0.36506251952085633,0.3370468188042325
0.17625013216768878,0.09765412354625938,0.3612384558956303,0.3369108299744721
0.17427517542860507,0.09639287230370883,0.3574612039949989,0.33677381558311303
0.17232528150989312,0.09514841260024928,0.3537301349382962,0.33663585136586693
0.17040010392723598,0.09392050511823588,0.35004462928309055,0.3364970090388242
0.16849930162580484,0.09270891446261428,0.3464040768494594,0.33635735650838194
0.16662253887127346,0.0915134090767967,0.3428078765488767,0.3362169580702187
0.16476948514394324,0.09033376116107386,0.3392554362175628,0.336075874597896
0.1629398150358631,0.08916974659346896,0.3357461724541162,0.33593416372161566
0.1611332081508316,0.08802114485293552,0.3322795104612919,0.3357918799976588
0.15934934900717374,0.08688773894481253,0.328854883891772,0.3356490750689811
0.15758792694318957,0.0857693153284517,0.3254717346977991,0.3355057978174354
0.15584863602517657,0.08466566384693133,0.32212951298452275,0.3353620945080493
0.15413117495793205,0.08357657765878398,0.31882767686694047,0.3352180089257818
0.15243524699764288,0.0825018531716585,0.31556569233031473,0.3350735825051414
0.15076055986708028,0.08144128997784414,0.3123430330939363,0.334928854453045
0.1491068256730122,0.08039469079159103,0.3091591804781295,0.33478386186526654
0.14747376082575686,0.07936186138816084,0.3060136232743882,0.33463863983681263
0.14586108596080177,0.07834261054453898,0.3029058576185353,0.3344932215665376
0.14426852586241265,0.07733674998175497,0.29983538686681555,0.3343476384563012
0.1426958093891652,0.07634409430874942,0.29680172147481443,0.334201920204957
0.14114266940133155,0.07536446096773045,0.2938043788791158,0.3340560948974306
0.13960884269005727,0.07439767018097046,0.2908428833816148,0.3339101890891575
0.1380940699082681,0.07344354489898877,0.2879167660363926,0.33376422788610804
0.13659809550324634,0.07250191075007142,0.28502556453908223,0.3336182350206448
0.13512066765082206,0.0715725959910847,0.2821688231186372,0.33347223292341555
0.13366153819112284,0.07065543145953176,0.2793460924314295,0.33332624279149836
0.13222046256583225,0.06975025052681524,0.2765569294576222,0.3331802846529891
0.13079719975690582,0.06885688905265899,0.2738008973997119,0.33303437742822006
0.1293915122266962,0.0679751853406538,0.2710775655832176,0.3328885389877835
0.12800316585944424,0.06710498009488589,0.26838650935941644,0.3327427862075252
0.12663192990408775,0.06624611637761355,0.26572731001008654,0.3325971350206721
0.12527757691835034,0.06539843956795663,0.2630995546541868,0.332451600467234
0.123939882714066,0.06456179732156339,0.26050283615642367,0.33230619674083217
0.12261862630370268,0.063736039531227,0.2579367530376462,0.3321609372330794
0.12131358984804583,0.06292101828841459,0.25540090938702287,0.33201583457564543
0.12002455860500846,0.06211658784568366,0.2528949147759385,0.3318709006801275
0.11875132087952939,0.06132260457995778,0.2504183841735734,0.3317261467758357
0.11749366797453087,0.06053892695662985,0.24797093786411573,0.33158158344561117
0.11625139414290009,0.059765415494470314,0.24555220136556066,0.33143722065976844
0.11502429654046656,0.05900193273131485,0.24316180535004728,0.3312930678082703
0.11381217517994366,0.05824834319050484,0.24079938556570668,0.331149133731218
0.11261483288580798,0.05750451334806131,0.23846458275996318,0.33100542674775413
0.11143207525008858,0.056770311600564366,0.23615704260426695,0.3308619546834518
0.1102637105890392,0.05604560823372326,0.23387641562020445,0.33071872489627485
0.10910954990066943,0.05533027539161009,0.23162235710696288,0.3305757443011835
0.10796940682311015,0.05462418704654229,0.2293945270701101,0.33043301939345193
0.10684309759378946,0.05392721896959132,0.22719259015165738,0.33029055627076986
0.10573044100939721,0.053239248701699576,0.22501621556136597,0.33014836065418673
0.10463125838661674,0.05256015552539203,0.22286507700927993,0.3300064379079658
0.10354537352360271,0.051889820437058004,0.2207388526394387,0.32986479305839567
0.10247261266218266,0.05122812611979424,0.21863722496476146,0.32972343081162225
0.10141280445077028,0.05057495691678757,0.21655988080304622,0.3295823555705476
0.10036577990796053,0.04993019880522684,0.21450651121409003,0.32944157145084363
0.09933137238679979,0.04929373937072526,0.21247681143787567,0.32930108229613153
0.09830941753970657,0.04866546778224243,0.2104704808338156,0.32916089169236573
0.09729975328402746,0.04804527476748985,0.20848722282102572,0.3290210029814651
0.0963022197682169,0.04743305258880828,0.20652674481960376,0.32888141927423287
0.095316659338616,0.04682869501950568,0.20458875819288602,0.32874214346259945
0.09434291650682602,0.046232097320639126,0.20267297819066732,0.3286031782312252
0.09338083791765361,0.045643156218234476,0.20077912389336405,0.32846452606849597
0.09243027231761791,0.04506176988092789,0.1989069181570835,0.328326189276943
0.09149107052400701,0.044487837898021715,0.1970560875596019,0.32818816998311773
0.09056308539446489,0.04392126125794113,0.19522636234721857,0.3280504701469493
0.08964617179710593,0.04336194232708526,0.19341747638246565,0.32791309157061366
0.08874018658113347,0.04280978482905809,0.1916291670926642,0.3277760359069347
0.08784498854796091,0.04226469382427464,0.18986117541930025,0.32763930466734925
0.08696043842281642,0.04172657568992902,0.18811324576821153,0.3275028992294521
0.08608639882682478,0.04119533810031953,0.18638512596056045,0.32736682084414714
0.08522273424955462,0.040670890007517585,0.18467656718458492,0.3272310706424234
0.08436931102201767,0.040153141622377125,0.1829873239481037,0.3270956496417756
0.08352599729011623,0.039642004395872926,0.18131715403176618,0.3269605587522869
0.08269266298852262,0.039137391000762495,0.17966581844303353,0.32682579878239604
0.0818691798149862,0.03863921531356149,0.17803308137086837,0.32669137044435825
0.08105542120505554,0.03814739239682777,0.1764187101411283,0.3265572743594227
0.08025126230720958,0.037661838481747284,0.17482247517264815,0.3264235110627348
0.0794565799583859,0.037182470951011376,0.1732441499339863,0.32629008100798484
0.07867125265990327,0.03670920832198424,0.17168351090084588,0.3261569845718104
0.07789516055376267,0.036241970230149884,0.17014033751412705,0.32602422205796766
0.07712818539932792,0.03578067741283528,0.16861441213863393,0.3258917937012844
0.07637021055036963,0.03532525169320114,0.16710552002238743,0.32575969967140417
0.07562112093247286,0.03487561596449687,0.1656134492565684,0.32562794007633555
0.07488080302079497,0.034431694174573396,0.16413799073604518,0.3254965149658118
0.07414914481817131,0.03399341131064729,0.16267893812050516,0.325365424334477
0.07342603583355956,0.03356069338431303,0.16123608779615917,0.32523466812490265
0.07271136706081666,0.03340897454582503,0.15980923883802078,0.325104246230446
0.0720050309578033,0.03332143748420069,0.15839819297273894,0.3249741584979575
0.07130692142580636,0.03323463635988955,0.15700275454198498,0.3248444047303476
0.07061693378927802,0.033148565234964344,0.15562273046637642,0.3247149846890147
0.06993496477588163,0.03306321814516222,0.1542579302099394,0.32458589809614835
0.0692609124968403,0.032978589104971756,0.1529081657450786,0.324457144636911
