jointFR1,jointFR2,jointFR3,force
5.411286103744357,5.338574401564842,7.934564326778427,5.149224944509027
5.118764391533266,5.0501876809494295,7.490698675625071,4.907680730218919
4.841710357830284,4.7770558394761675,7.070571178869513,4.677128489406782
4.579312586271789,4.518378384714997,6.672931393566443,4.4570736466206995
4.330802101126302,4.2733967012434535,6.296594382875102,4.247043784567617
4.095450149994834,4.041391862574467,5.94043729162433,4.046587652951509
3.872566102298953,3.8216825573511515,5.603396100745574,3.855274221621681
3.6614954575113923,3.6136231238426686,5.284462551234405,3.6726917760508084
3.473112078176388,3.4166016870867835,4.982681228788705,3.498447053250669
3.3078914689289154,3.230038393319741,4.69714680073373,3.3321644163181894
3.1502265136099936,3.0533837366140846,4.427001397282336,3.173485065885161
2.999776623613012,2.8861169729100236,4.171432129593689,3.02206628682214
2.8562164800763616,2.727744616877409,3.929668737487363,2.8775807286207966
2.7192353506766436,2.577799017283509,3.7009813600425017,2.7397157179493887
2.588536436967433,2.4358370067675983,3.5334467622761103,2.6081726019433003
2.463836250898296,2.308280709080202,3.3847083567293517,2.482666120856874
2.344864019209765,2.198623021707117,3.2419669508587723,2.3629238087641626
2.2313611144583176,2.09397879978118,3.1049824177437984,2.2486854210548746
2.1230805114810534,1.994122082439279,2.97352423311808,2.1409983097825975
2.0197862681629704,1.8988370385202735,2.8473710914309898,2.0383272350131096
1.9212530294205479,1.807917513358234,2.726310537262822,1.9403246892192019
1.8272655533639413,1.7211665958376843,2.6252599887752264,1.8467824986640153
1.7376182586464073,1.6383962048051495,2.569173743252997,1.7575017018836672
1.6521147920539312,1.5594266939718944,2.514511070848058,1.6722921432512428
1.5705676154303323,1.4840864744813167,2.4612274072763825,1.590972084450802
1.502041890591112,1.4122116543514713,2.409279871583074,1.5133678330725417
1.439648116042197,1.3436456940384245,2.358627193834321,1.4393133875749824
1.3822840002410215,1.2867047690455187,2.309229646156357,1.3686500978932739
1.3272296218271329,1.2344896090197084,2.26104897695992,1.3012263410044496
1.2743922358105393,1.1843680038964446,2.2140483481967084,1.236897210790819
1.2236828119863477,1.136256202127057,2.1681922755018994,1.1755242215717066
1.1750158863289137,1.0900738004939976,2.1353191239107745,1.1169750247014616
1.128309418328155,1.0457436102580415,2.10426353469954,1.0710667726558738
1.0834846540304253,1.0031915286573765,2.0737231385907133,1.0511769221062466
1.040465994555847,0.9623464155445083,2.043687681696075,1.0318632433797958
0.9991808698731214,0.9231399749554838,2.0141471745789605,1.0131028268137825
0.9790828602677741,0.8855066414141539,1.9850918834331168,0.9948738392643425
0.9597262244167925,0.8493834707820935,1.9565123216087523,0.9771554700510272
0.9408364311282739,0.8147100354723797,1.9283992414710205,0.9599278796790344
0.9223988877367245,0.7814283238526953,1.9007436265768234,0.9431721511952542
0.9043995574257649,0.7494826436702171,1.8735366841564383,0.9268702440417677
0.886824935819801,0.7188195293374458,1.8467698378870632,0.9110049502774922
0.8696620286015833,0.6893876529245753,1.820434720945943,0.8955598530453884
0.8528983301100808,0.6611377387101731,1.7945231693312702,0.8805192871690096
0.8365218028751045,0.6340224811478772,1.769027215439582,0.865868301768209
0.8205208580470756,0.6079964661125055,1.743939081888856,0.8515926247895395
0.8048843366821806,0.5897651459249635,1.7192511755769855,0.8376786293523008
0.7896014918449371,0.5785066559941621,1.6949560819657654,0.8241133018163374
0.7746619714918858,0.5675159627854882,1.671046559580943,0.810884211482555
0.7600558021017408,0.55678472238402,1.647515534719311,0.7979794818417522
0.7457733730188808,0.546304909412661,1.6243560963542003,0.7853877632917385
0.7318054214785376,0.5360688035747639,1.6015614912311165,0.7730982072468664
0.7181430182834563,0.5260689767879708,1.579125119145616,0.7611004415680395
0.7047775541031418,0.5162982808829553,1.5570405283958646,0.7493845472449924
0.6917007263680991,0.506749835841938,1.53530141140265,0.7379410362661747
0.6789045267327036,0.4974170185529545,1.5139016004899277,0.7267608306149298
0.6663812290815215,0.4882934520569303,1.4928350638192884,0.7158352423338328
0.6541233780550059,0.4793729952656577,1.4720959014720134,0.7051559546020738
0.642123778071584,0.47064973312972214,1.4516783416726637,0.6947150037736254
0.6303754828241718,0.4621179672363869,1.4315767371484078,0.6845047623266469
0.6188717852301214,0.4537722068183171,1.4117855616185397,0.6745179226771447
0.6076062078145594,0.4456071601548951,1.3922994064088954,0.6647474818123429
0.5965724935079517,0.43761772634867924,1.3731129771860728,0.6551867267015309
0.5857645968395966,0.4297989874603487,1.3542210908066132,0.6458292204443377
0.5751766755095502,0.42214620098621414,1.335618672276488,0.6366687891184675
0.5648030823222863,0.4146547926630869,1.3173007518164443,0.6276995092908859
0.5546383574661177,0.40732034958597696,1.2992624620289526,0.6189156961583239
0.5446772211231279,0.4001386136247471,1.2814990351626738,0.6103118922847238
0.5349145663950406,0.3931054751264501,1.2640058004705612,0.6018828569049429
0.5261236034259857,0.3862169668906923,1.2467781816578447,0.5936235557656017
0.51842608081833,0.37946925840591594,1.2298116944163393,0.585529151475485
0.5108506248783884,0.3728586503350366,1.2131019440416433,0.5775949943393265
0.5033950643692184,0.3663815692393929,1.1966446231299623,0.5698166136501663
0.49605727522408904,0.36003456253044974,1.1804355093514143,0.5621897094167476
0.4888351792038429,0.35381429363917405,1.1644704632968177,0.5547101445036439
0.4817267426024764,0.3477175373934569,1.1487454263950854,0.5473739371629626
0.47472997499896863,0.34174117559436445,1.1332564188984722,0.5401772539375554
0.4678429280534651,0.335882192782439,1.1179995379330379,0.5331164029167186
0.46106369434601796,0.33013767218564305,1.102970955611804,0.5261878273263371
0.45439040625614635,0.3245047918409192,1.0881669172081798,0.5193880994363641
0.44782123488157144,0.31898082088170276,1.07358373938735,0.512713914769418
0.4413543889945342,0.31356311598405684,1.059217808493392,0.5061620865951049
0.4349881140341904,0.30824911796443355,1.0450655788900152,0.49972954069547965
0.42872069113362704,0.30303634852237116,1.0311235713528633,0.4934133103878083
0.42255043618011634,0.2979224071217411,1.0173883715114491,0.4872105317915113
0.4164756989072793,0.29290496800443544,1.0038566283388413,0.4811184393268417
0.41049486201788693,0.28798177733066943,0.9905250526873094,0.47513436143349713
0.40460634033608284,0.28315065044031884,0.9773904158682181,0.4692557164979727
0.3988085799878664,0.27840946922997145,0.9644495482745198,0.46348000897904074
0.3931000576087146,0.2737561796406094,0.9516993380442692,0.4578048257212889
0.387479279577284,0.2691887892510503,0.9391367297636464,0.4522278324471688
0.38194478127416365,0.2647053649725162,0.9267587232080405,0.4467467704184988
0.3764951263647056,0.2603040308398846,0.9145623721198077,0.44135945325883297
0.371128906104994,0.2559829658953815,0.9025447830213611,0.43606376392854823
0.36584473867005596,0.25174040216066984,0.8907031140623256,0.4308576518449231
0.3606412685034561,0.24757462269345953,0.8790345738995227,0.4257391301398812
0.355517165687452,0.2434839597249392,0.8675364206086196,0.42070627304844366
0.35047112533291835,0.23946679287449646,0.856205960626303,0.41575721342130156
0.3455018669882943,0.2355215474383523,0.8450405477219074,0.41089014035524807
0.3406081340668192,0.23164669274887595,0.8340375819974557,0.40610329693554253
0.33578869329137534,0.22784074060150228,0.8231945089151096,0.4013949780845765
0.33104233415626316,0.22410224374630494,0.8125088183510889,0.3967635285115006
0.3263678684052834,0.2204297944414073,0.8019780436751252,0.3922073407577512
0.32176412952550937,0.21682202306553866,0.7915997608545877,0.3877248533336713
0.31722997225616706,0.21327759678717084,0.7813715875824154,0.38331454894166467
0.3127642721120672,0.20979521828777303,0.7712911824280677,0.3789749527815662
0.30836592492104653,0.20637362453683916,0.76135624401069,0.3747046309341164
0.30403384637491027,0.20301158561644173,0.7515645101937678,0.37050218881865776
0.29976697159337795,0.19970790359317092,0.7419137573005379,0.3663662697213521
0.29556425470056347,0.19646141143540863,0.7324017993494651,0.36229555339042196
0.2914246684135333,0.19327097197397614,0.7230264873091303,0.35828875469508553
0.28734720364251154,0.1901354769042901,0.7137857083718904,0.3543446223450357
0.2833308691023116,0.18705384582823048,0.7046773852456878,0.3504619376674683
0.279374690934598,0.18402502533401666,0.6956994754634314,0.34663951343881805
0.2754777123405919,0.1810479881124556,0.6868499707093865,0.34287619276850967
0.2716389932238547,0.17812173210800275,0.6781268961620142,0.33917084803216485
0.2678576098427974,0.1752452797031363,0.6695283098527509,0.33552237985183797
0.264132654472573,0.17241767693462962,0.6610523020402241,0.33192971612097766
0.2604632350760321,0.16963799274034552,0.6526969945994097,0.32839181107192833
0.2568484749834268,0.16690531823526078,0.6444605404252792,0.32490764438389486
0.25328751258056376,0.16421876601546626,0.6363411228504843,0.3214762203294034
0.24977950100512053,0.16157746948895768,0.6283369550766384,0.31809656695738764
0.24632360785084656,0.158980582232075,0.6204462796187973,0.3147677353111264
0.24291901487938716,0.15642727737050466,0.612667367762729,0.31148879867934715
0.2395649177394737,0.1539167469838031,0.6049985190345875,0.3082588518788987
0.23626052569323525,0.15144820153244887,0.5974380606826262,0.30507701056747294
0.23300506134939958,0.14902086930646996,0.5899843471705943,0.30194241058493454
0.22979776040315492,0.14663399589474102,0.582635759682465,0.29885420732189155
0.22663787138245767,0.14428684367407962,0.5753907056381755,0.2958115751142069
0.2235246554005766,0.14197869131730867,0.5682476182200498,0.2928137066622157
0.2204573859146739,0.13970883331949746,0.5612049559096084,0.28985981247347936
0.21743534849023133,0.13747657954161385,0.5542612020344593,0.28694912032796227
0.21445784057113448,0.13528125477086728,0.5474148643249841,0.28408087476457455
0.21152417125523815,0.1331221982970473,0.5406644744805527,0.28125433658807714
0.2086336610752439,0.13099876350419104,0.5340085877449998,0.27846878239539785
0.20578564178471997,0.12891031747694692,0.5274457824910919,0.2757235041204489
0.20297945614911134,0.12685624062102896,0.5209746598137583,0.27301780859659247
0.20021445774158186,0.12483592629717744,0.5145938431318351,0.27035101713592813
0.19749001074354655,0.12284878046807313,0.5083019777980957,0.2677224651246351
0.19480548974974898,0.12089422135767569,0.5020977307173415,0.26513150163362403
0.1921602795777511,0.11897167912247097,0.4959797899723455,0.26257748904380346
0.18955377508170151,0.11708059553415329,0.4899468644574374,0.2600598026852895
0.1869853809702593,0.1152204236732659,0.4839976835195221,0.25757783048992955
0.1844545116285491,0.11339062763336383,0.4781309966063556,0.2551309726565372
0.18196059094403266,0.11159068223526869,0.4723455729218735,0.2527186413282652
0.17950305213618284,0.10982007275101158,0.46664020108840076,0.250340260281574
0.17708133758985206,0.10807829463707397,0.4610136888155678,0.2479952646262797
0.17469489869223026,0.1063648532765541,0.4554648625757578,0.2456831005161872
0.17234319567329143,0.10467926372990244,0.4499925672859286,0.24340322486984434
0.17002569744963125,0.10302105049388521,0.4445956659956447,0.24115510510097032
0.1677418814716023,0.10138974726845118,0.43927303958117214,0.2389382188581368
0.16549123357365586,0.09978489673118829,0.43402358644548134,0.23675205377329922
0.163273247827803,0.09820605031907181,0.4288462222240197,0.23459610721879576
0.16108742640011064,0.09665276801721623,0.4237398794961147,0.23246988607245037
0.15893327941015103,0.09512461815436124,0.4187035075018668,0.2303729064904334
0.1568103247933264,0.09362117720482588,0.413736071864407,0.2283046936875496
0.15471808816599222,0.09214202959668338,0.40883655431739285,0.22626478172464143
0.1526561026933059,0.09068676752591309,0.4040039524376229,0.22425271330280727
0.15062390895973088,0.08925499077630283,0.39923727938263287,0.22226803956415242
0.14862105484212634,0.08784630654488013,0.3945355636331902,0.22031031989879957
0.14664709538535714,0.08646032927266123,0.38989784874053957,0.21837912175790394
0.1447015926803597,0.08509668048051855,0.38532319307832563,0.21647402047242545
0.14278411574460254,0.08375498860996822,0.3808106695990563,0.21459459907742523
0.14089424040488044,0.08243488886869998,0.3763593655950235,0.21274044814166362
0.13903154918238558,0.08113602308066459,0.3719683824635831,0.21091116560228684
0.13719563117999878,0.07985803954055593,0.3676368354766826,0.20910635660440124
0.1353860819717472,0.07860059287251664,0.36336385355455825,0.20732563334534085
0.1336025034943754,0.07736334389292276,0.3591485790435063,0.20556861492344586
0.13184450394097955,0.07614595947708536,0.3549901674976321,0.20383492719117635
0.13011169765665523,0.07494811242973931,0.35088778746450755,0.2021242026123932
0.128403705036111,0.07376948135916683,0.34684062027463414,0.20043608012364852
0.12672015242320206,0.0726097505548412,0.3428478598346465,0.19877020499933243
0.12506067201233861,0.07146860986844816,0.3389087124241741,0.19712622872053112
0.1234249017517258,0.0703457545981796,0.3350223964962695,0.19550380884745824
0.12181248524839342,0.06924088537616957,0.33118814248135786,0.1939026088953272
0.12022307167497387,0.06815370805897203,0.327405192594602,0.19232229821353813
0.1186563156781894,0.06708393362097087,0.3236728006466427,0.19076255186805896
0.11711187728901015,0.06603127805061448,0.3199902318576153,0.18922305052688582
0.11558942183444501,0.06499546224938746,0.31635676267440815,0.1877034803484724
0.11408861985093022,0.06397621193341418,0.31277168059106875,0.18620353287302369
0.1126091469992794,0.06297325753761362,0.3092342839723117,0.18472290491655335
0.11115068398116214,0.06198633412231358,0.3057438818800573,0.1832612984676084
0.10971291645707647,0.061015181282240594,0.3022997939029497,0.18181842058657008
0.1082955349657845,0.06005954305781114,0.29890134998878537,0.18039398330744263
0.1068982348451788,0.059119167848639964,0.2955478902798001,0.17898770354204624
0.10552071615454978,0.058193808329200236,0.2922387649507592,0.1775993029865335
0.10416268359822412,0.05728322136655917,0.28897333404979464,0.1762285080301524
0.10282384645054547,0.05638716794012283,0.28575096734193783,0.17487504966618267
0.1015039184821698,0.05550541306332646,0.2825710441552869,0.173538663404974
0.1002026178876475,0.05463772570720643,0.2794329532297781,0.17221908918901985
0.09891966721426657,0.053783878725794265,0.2763360925684879,0.17091607131000056
0.09765479329213018,0.05294364878327423,0.273279869291436,0.1696293583277345
0.09640772716544442,0.05211681628285181,0.27026369949182993,0.16835870299097824
0.09517820402499091,0.051312573269583495,0.26728700809471206,0.16710386216001796
0.09396596314176117,0.05057098438219282,0.26434922871796696,0.16586459673099624
0.09277074780172896,0.049840426362210755,0.2614498035356303,0.1646406715619244
0.09159230524173856,0.04912073084814478,0.2585881831434784,0.1634318554003278
0.0904303865864864,0.04841173210738692,0.2557638264268318,0.16223792081247568
0.08928474678657482,0.04771326699378747,0.25297620043055624,0.16105864411415127
0.08815514455761712,0.047025174905968914,0.250224780231203,0.15989380530291317
0.08704134232037335,0.04634729774635865,0.24750904881125613,0.15874318799181059
0.08594310614189672,0.04567947988093107,0.2448284969354484,0.15760657934450592
0.08486020567767172,0.045021568099640474,0.24218262302911353,0.15648377001176864
0.0837924141147243,0.04437341157753544,0.23957093305852317,0.15537455406930015
0.0827395081156863,0.0437348618365348,0.23699294041318342,0.15427872895685374
0.08170126776379553,0.04310577270786031,0.2344481657900661,0.15319609541861465
0.0806774765088141,0.04248600029510491,0.2319361370797146,0.15212645744480466
0.07966792111384774,0.04187540293793007,0.22945638925421075,0.15106962221448006
0.07867239160304935,0.041273841176376835,0.22700846425696608,0.1500254000394903
0.07769068121019018,0.040681177715779504,0.2245919108943002,0.14899360430956698
0.07672258632808274,0.04009727739227048,0.22220628472877846,0.14797405143851464
0.07576790645883971,0.0395220071388655,0.21985114797427774,0.1469665608114734
0.07482644416495352,0.03895523595211753,0.21752606939274965,0.1459709547332276
0.07389800502118148,0.03839683485932638,0.21523062419265138,0.1449870583775333
0.07298239756722212,0.037846676886299224,0.21296439392901578,0.14401469973743897
0.07207943326116804,0.03730463702564579,0.21072696640513144,0.14305370957657573
0.07118892643372152,0.036770592205601416,0.20851793557580223,0.14210392138139183
0.07031069424315901,0.0362444212593675,0.2063369014521732,0.14116517131430958
0.06944455663103133,0.03572600489495881,0.20418347000806736,0.14023729816778233
0.06859033627858609,0.035215225665550076,0.2020572530878424,0.13932014331922932
0.06774785856389984,0.03471196794031234,0.1999578683157115,0.1384135506868284
0.06691695151970728,0.03421611787572726,0.19788493900651982,0.1375173666861463
0.06609744579191493,0.03372756338737559,0.1958380940779516,0.136631440187586
0.0652891745987878,0.033246194122186656,0.1938169679641326,0.13575562247463416
0.06449197369079675,0.03277190143114339,0.19182120053061302,0.13488976720288892
0.06370568131111515,0.03230457834243505,0.18985043699071125,0.13403373035985003
0.06293013815675372,0.0318441195350444,0.1879043278231869,0.13318737022545632
0.06216518734032214,0.03139042131277159,0.18598252869121334,0.1323505473333508
0.06141067435240681,0.0309433815786751,0.18408470036265978,0.1315231244328599
0.06066644702455411,0.030502899809931983,0.18221050863162258,0.13070496645166987
0.05993235549284856,0.030068877033105568,0.18035962424120555,0.1298959404591847
0.05920825216207591,0.029641215799813325,0.17853172280752716,0.12909591563055234
0.058493991670460946,0.029219820162789234,0.17672648474493502,0.12830476321134343
0.05778943085497031,0.028804595652333953,0.17494359519239433,0.1275223564828694
0.05709442871717073,0.028395449253144467,0.17318274394104982,0.126748570728126
0.05640884638963301,0.027992289381518265,0.17144362536292967,0.12598328319834903
0.05573254710287298,0.02759502586292406,0.1697259383407732,0.12522637308017026
0.055065396152819746,0.027203569909934167,0.16802938619897123,0.12447772146336
0.05440726086880288,0.02681783410051264,0.16635367663559109,0.12373721130914486
0.05375801058204949,0.026437732356649535,0.1646985216554746,0.1230047274190889
0.05311751659468272,0.02606317992334045,0.16306363750439123,0.12228015640452654
0.052485652149213274,0.025694093347903013,0.16144874460422365,0.12156338665653589
0.051862292398515725,0.025330390459621543,0.15985356748917923,0.12085430831644203
0.051247314376281564,0.02497199034972175,0.15827783474299562,0.12015281324683943
0.05064059696794086,0.024618813351662328,0.15672127893714283,0.11945879500312312
0.05004202088204515,0.024270781021742294,0.15518363656998635,0.11877214880551835
0.04945146862210326,0.023927816120018264,0.15366464800690793,0.1180927715116001
0.048868824458863466,0.02358984259152508,0.1521640574213734,0.11742056158929029
0.048293974403033575,0.02325678554779581,0.15068161273690572,0.11675541909032733
0.04772680617843261,0.022928571248676866,0.14921706556998804,0.11609724562419393
0.04716720919556641,0.022605127084430854,0.14777017117384328,0.11544594433249933
0.04689196547325431,0.02228638155812479,0.1463406883831051,0.1148014198638032
0.04672234584123997,0.021972264268297792,0.1449283795593459,0.11460778573123787
0.04655354909271366,0.021662705891904388,0.1435330105374626,0.11441835615338602
0.046385567991093966,0.021357638167526893,0.1421543505728966,0.11422823237064439
0.04621839554065479,0.021056993878855457,0.1407921722896759,0.11403743971078395
0.04605202497520524,0.020760706838429066,0.13944625162927027,0.11384600301576486
