jointHR1,jointHR2,jointHR3,force
6.458002259758794,5.292967464924717,7.778264377515098,6.143147654372321
6.096669889168982,5.002555570859951,7.336150533376014,5.801177789260735
5.7548915723540475,4.727763523915473,6.918068169099059,5.4776927261047375
5.431621160198485,4.467757571846179,6.52272965832839,5.171703820921487
5.1258682336169565,4.221748337959216,6.148916005258028,4.88227509273579
4.836695139716046,3.9889884619763354,5.795473194005371,4.6085204228694
4.563214185470259,3.768770366255418,5.461308732012627,4.349600903076353
4.304584980543634,3.56042414071121,5.145388377167368,4.104722324616148
4.060011921332833,3.363315540129155,4.846733038880878,3.873132800776711
3.828741808728618,3.1768440879012614,4.56441584388163,3.654120515756771
3.610061592491081,3.00044128053001,4.297559357972169,3.447011593194066
3.403296235511579,2.83356888754675,4.045332955462584,3.2511680779823604
3.207806691591483,2.67571734177539,3.806950328434049,3.0659860253579843
3.022987990706439,2.5264042151414814,3.5816671284026897,2.890893691556383
2.848267426045117,2.401629720999905,3.40965931229628,2.767776507247131
2.6831028374148223,2.2893596759955983,3.2475533690808853,2.658426103426363
2.526980985893717,2.182200853244496,3.092767589243243,2.5539246829783324
2.3794160148812535,2.079923173757113,2.944977311995361,2.454058313309148
2.2399479929561688,1.9823068714443786,2.8500413823459523,2.3586224832270144
2.108141534195073,1.889142031577869,2.770444201055499,2.2674216882465323
1.9835844918357903,1.8002281498947033,2.692982445223289,2.180269034144253
1.8658867213881158,1.7153737114238081,2.6175990718541606,2.096985857962261
1.7754338592354728,1.6343957881515017,2.5442385636795373,2.0174013656918692
1.7255348542935869,1.5571196546838755,2.4728468881862815,1.941352285903326
1.6769932507765617,1.483378421101041,2.4033714577542007,1.8686825386197403
1.6326817981562551,1.4130126822343825,2.3357736951471497,1.7992429187643086
1.595082117183075,1.3458701826323087,2.28058849743045,1.7328907935394753
1.5583272778613786,1.2818054965128518,2.226647084048231,1.6694898131248586
1.522397995569167,1.220679722032852,2.1739211396269313,1.6089096341077849
1.4872754458665909,1.162360189233425,2.122383017655627,1.5510256550860522
1.4529412524836238,1.106720181050065,2.0720057234051446,1.495718763907229
1.419377475671271,1.0536386668030806,2.023773450136022,1.442875096032337
1.386566600903091,1.003000047610195,1.9831599661054935,1.3923858035343557
1.3544915279143686,0.9546939131881051,1.94347921108466,1.3441468342634684
1.323135560066828,0.9142727685252945,1.9047060507389084,1.2980587207316434
1.2924823940272807,0.8901500031951224,1.8668161420692693,1.2540263782887708
1.2625161097490976,0.8666699087652183,1.8297859051845893,1.2119589121814385
1.2332211607458567,0.8438153331022051,1.7935924961702683,1.17176943310342
1.2045823646469689,0.8215695827023426,1.758213781008661,1.1333748808641464
1.1765848940254953,0.799916410376742,1.7236283105081447,1.0966958558178892
1.1492142674887873,0.7788400032699216,1.6898152961996664,1.0616564577120988
1.1224563410229598,0.758324971202551,1.6567545871613203,1.0281841316283824
1.0962972995825637,0.7383563353294893,1.6244266477331681,0.9962095207039695
1.070723648917202,0.7189195171044827,1.5928125360861012,0.9656663253352518
1.0457222076271298,0.7000003275431077,1.5618938836100726,0.9364911685781241
1.0212800994402316,0.6815849567758079,1.5316528750884757,0.9086234674723979
0.9973847457030496,0.6636599638830771,1.5020722296268487,0.8820053100295703
0.9740238580788381,0.6462122670050767,1.4731351823054106,0.8565813376347022
0.9511854314458936,0.6313123387781011,1.4448254665262197,0.8322986326241285
0.9288577369896704,0.6177110782418779,1.4171272970269626,0.8091066108112106
0.9070293154824496,0.6044121620825399,1.3900253535345557,0.786956918742368
0.8856889707445657,0.5914087724473983,1.3635047650328598,0.7658033354752074
0.8648257632814296,0.5786942500204838,1.337551094619882,0.74560167867973
0.8444290040907988,0.5662620900916037,1.3121503249308686,0.72630971487236
0.8244882486349691,0.5541059387348993,1.2872888441046668,0.707887073600906
0.8052447985995019,0.5422195890932994,1.262953432271689,0.6902951654065735
0.7885370203559936,0.5305969777653935,1.2391312485427002,0.673497103396803
0.7722021054971708,0.5192321812914041,1.2158098184785169,0.6574576282700182
0.7562315982413188,0.5081194127350431,1.1929770220215399,0.6421430366403642
0.7406172369347205,0.4972530183581786,1.1706210818708194,0.6275211125172061
0.7253509494950809,0.48662747438536924,1.1487305522831188,0.6135610618005441
0.7104248489666734,0.4762373838553825,1.127294308283167,0.600233449659616
0.6958312291842402,0.466077473557002,1.1063015352669787,0.5875101406677931
0.6815625605427679,0.45614259104645727,1.0857417189827938,0.5753642415724733
0.6676114858703438,0.44642770174395163,1.0656046358748177,0.5637700465839954
0.6539708164013852,0.4369278861068525,1.0458803437755577,0.5527029850727184
0.6406335278476123,0.42763833687718067,1.026559172933133,0.5421395715682806
0.6275927565642139,0.41855435640114125,1.0076317173604947,0.5320573579597164
0.6148417958087294,0.40967135401851795,0.9890888264940313,0.5224348877995776
0.6023740920902451,0.4009848435198178,0.9709215971495405,0.5132516526194523
0.5901832416065697,0.3924904406691506,0.9531213657640502,0.5044880501683684
0.5782629867671238,0.38418386079087885,0.9356797009124301,0.49612534448944884
0.5666072127993433,0.37606091641816297,0.918588396088197,0.4881456277539201
0.5552099444364584,0.36811751500157486,0.9018394627383413,0.48053178377513167
0.5440653426845714,0.3603496566760349,0.8854251235424195,0.47326745312864793
0.5331677016670177,0.35275343208436993,0.8693378059265506,0.46633699980773097
0.5225114455440467,0.3453250202558641,0.8535701358033401,0.45972547934663793
0.5120911255059196,0.33806068653822363,0.838114931529109,0.45341860834713793
0.5019014168375707,0.33095678058142686,0.8229651980701631,0.4474027353464883
0.4919371160530317,0.32400973437199365,0.8081141213701704,0.4416648129678358
0.4821931380978695,0.3172160603162473,0.7935550629110222,0.4361923712966003
0.47266451361793427,0.3105723493711904,0.779281554459883,0.4309734924288851
0.4633463862927633,0.3040752692216747,0.7652872929954011,0.42599678614033326
0.4542340102320295,0.29772156250257054,0.7515661358063588,0.42125136662611834
0.4453227474334696,0.29150804506469297,0.738112095756287,0.41672683026492713
0.4366080653007676,0.28543160428328995,0.7249193367078517,0.412413234361869
0.4280855342199114,0.2794891974079182,0.7119821691010422,0.40830107682722877
0.41975082519257956,0.27367784995258704,0.6992950456794516,0.40438127674987406
0.4115997075251557,0.2679946541250745,0.6868525573591504,0.4006451558259445
0.4036280465720018,0.26243676729436904,0.6746494292348826,0.39708442060518023
0.39583180153166364,0.25700141049519987,0.6626805167185166,0.3936911455189043
0.3882070232947107,0.25168586696868134,0.6509408018048899,0.39045775665525806
0.38074985234195163,0.24648748073809545,0.6394253894603683,0.38737701624880055
0.37345651669179825,0.24140365521889962,0.6281295041296391,0.38444200785303495
0.3663233298955816,0.23643185186204163,0.6170484863564207,0.3816461221658007
0.3593466890796578,0.23156958882972145,0.6061777895139497,0.3789830434788029
0.3525230730331681,0.2268144397027415,0.5955129766412601,0.37949667511413065
0.3458490403403528,0.22216403221863312,0.5850497173814388,0.38093238407744645
0.33932122755633715,0.21761604703975568,0.5747837850181741,0.38226311735508356
0.33293634742534983,0.21316821655059448,0.5647110536070687,0.38349404623769423
0.32669118714034495,0.2088183236835145,0.5548274951983239,0.38463010599139136
0.3205826066430385,0.20456420077223114,0.5451291771475291,0.3856760063816881
0.31460753696338806,0.2004037284322988,0.535612259511423,0.38663624173198397
0.30876297859757085,0.19633483446792765,0.5262729925256082,0.3875151005371201
0.3030459999235402,0.19235549280445963,0.517107714161323,0.38831667465162245
0.29745373565326355,0.1884637224458643,0.5081128477584795,0.3890448680713956
0.29198338532076734,0.18465758645661234,0.4992848997322923,0.3897034053267907
0.2866322118051345,0.18126440219680862,0.4906204573509123,0.3902958395041919
0.2813975398876268,0.17811366882858215,0.48211618658159483,0.39082555991250967
0.2762767548421202,0.17502121210340282,0.4737688300030112,0.39129579941023673
0.27126730105806096,0.17198583523108812,0.4655752047814097,0.39170964140804987
0.26636668069517755,0.16900637039597033,0.4575322007084226,0.3920700265612648
0.2615724523691921,0.16608167789834882,0.4496367782983912,0.39237975916583057
0.2568822298678016,0.16321064532632445,0.44188596694316895,0.3926415132709442
0.2525665442668309,0.16039218675681122,0.4342768631224321,0.39285783852078904
0.24838711273547645,0.1576252419845664,0.42680662866760977,0.39303116573735164
0.24428572097248943,0.1549087757781369,0.41947248907760626,0.3931638122557427
0.24026076034946384,0.1522417771616621,0.41227173188457233,0.39325798702294534
0.23631066035756276,0.14962325872151372,0.4052017050680192,0.39331579547043505
0.2324338874875628,0.14705225593680538,0.398381755533429,0.39333924417065014
0.22862894415189855,0.14452782653283736,0.3921294353383482,0.3933302452868567
0.22489436764681342,0.1420490498565824,0.38598927178030285,0.3932906208255299
0.2212287291528218,0.13961502627335842,0.37995905173033573,0.39322210669997026
0.21763063277177142,0.13722487658386973,0.37403661105492336,0.39312635661349105
0.21409871459888333,0.13487774146082565,0.3682198333108804,0.3930049457701421
0.2106316418282241,0.13257278090438906,0.3625066484846171,0.3928593744205948
0.20722811189014312,0.1303091737157288,0.3568950317738988,0.39269107125045855
0.20388685161927889,0.1280861169879849,0.3513830024102964,0.3925013966179963
0.20060661645180458,0.12590282561398525,0.34596862252066285,0.39229164564789254
0.1973861896506524,0.12375853181007301,0.340649996025989,0.39206305118742957
0.1942243815575136,0.12165248465543932,0.33542526757612956,0.3918167866311557
0.19112002887047086,0.11958394964637487,0.3302926215189097,0.3915539686198557
0.18807199394617596,0.11755220826487722,0.32525028090223085,0.3912756596193808
0.1850791641255362,0.11555655756107985,0.32029650650783825,0.39098287038464363
0.18214045108192536,0.11359630974898582,0.31542959591548825,0.39067656231386505
0.1792547901909785,0.11167079181500861,0.31064788259629617,0.39035764969791176
0.17642113992107977,0.1097793451388499,0.3059497350341214,0.39002700186937567
0.1736384812436902,0.10792132512625596,0.30133355587389565,0.38968544525582405
0.17090581706270544,0.10609610085321508,0.2967977810958278,0.3893337653414569
0.16822217166207137,0.10430305472118206,0.292340879214501,0.3889727085412291
0.16558659017092223,0.10254158212292097,0.28796135050190697,0.38860298399130333
0.16299813804553734,0.10081109111858377,0.2836577262334967,0.3882252652595445
0.16045590056745257,0.0991110021216558,0.27942856795639326,0.3878401919795861
0.15795898235708372,0.09744074759440724,0.2752724667789126,0.3874483714118574
0.1555065069022583,0.09579977175251586,0.27118804268064056,0.38705037993480207
0.15309761610107397,0.094187530278528,0.267173943842258,0.3866467644693803
0.15073146981853058,0.09260349004384605,0.2632288459944352,0.38623804383981
0.1484072454564091,0.09104712883893984,0.25939837377811625,0.3858247100733676
0.14612413753589198,0.08951793511149064,0.25575497614600384,0.3854072296419544
0.1438813572924475,0.08801540771219052,0.2521782640107082,0.38498604464800146
0.14167813228251414,0.08653905564793063,0.24866685509657493,0.3845615739571864
0.13951370600155183,0.08508839784211464,0.2452193982714015,0.3841342142803156
0.13738733751303678,0.08366296290186259,0.2418345727996234,0.3837043412066282
0.13529830108800406,0.08226228889185339,0.2385110876142691,0.383272310190673
0.13324588585475095,0.08088592311459075,0.23524768060718904,0.3828384574948219
0.13122939545833834,0.07953342189686352,0.23204311793709298,0.3824031010893829
0.12924814772954252,0.07820435038219675,0.22889619335491895,0.38196654151219944
0.1273014743629171,0.07689828232908613,0.2258057275460983,0.3815290626895289
0.12538872060365186,0.07561479991482478,0.2227705674892615,0.38109093271992467
0.12350924494291882,0.07435349354473209,0.21978958583096952,0.3806524046227596
0.12166241882141149,0.07311396166660677,0.2168616802760519,0.3802137170529647
0.11984762634080326,0.07189581059022987,0.2139857729931438,0.37977509498348394
0.11806426398284708,0.07069865431175171,0.21116081003503173,0.3793367503568772
0.11631174033586905,0.0695221143428022,0.20838576077342585,0.37889888270744565
0.11458947582840029,0.06836581954417037,0.2056596173477805,0.3784616797551902
0.11289690246971917,0.06722940596390481,0.20298139412780714,0.37802531797285166
0.11123346359707131,0.0661125166796927,0.20035012718932177,0.3775899631272379
0.10959861362935375,0.06501480164537976,0.19776487380308394,0.3771557707959736
0.10799181782705203,0.06393591754149813,0.1952247119362922,0.37672288686077504
0.10641255205823635,0.06287552762967524,0.19272873976641547,0.3762914479782872
0.10486030257041601,0.06183330161080286,0.19027607520703183,0.3758615820294905
0.10333456576807531,0.060808915486844584,0.18786585544538115,0.3754334085486266
0.10197018903178262,0.05980205142617068,0.18549723649131633,0.3750070391325596
0.1006573824180812,0.058812397632311164,0.1831693927373732,0.37458257783144266
0.09937088373863479,0.05783964821601789,0.18113471850829543,0.37416012152152545
0.09811011198800773,0.05688350307053874,0.17925876980845268,0.3737397602608994
0.09687449921939473,0.055943667750002146,0.17741906171614685,0.37332157762894436
0.09566349025030635,0.05501985335081927,0.17561479059240503,0.37290565105019835
0.09447654237490133,0.05411177639601095,0.17384517100224905,0.37249205210335556
0.0933131250828183,0.05321915872237509,0.1721094353019601,0.3720808468160496
0.09217271978435376,0.052341727370405156,0.17040683323570915,0.37167209594606165
0.09105481954184841,0.051479214476880863,0.16873663154132723,0.37126585524956124
0.08995892880713713,0.050631357170052516,0.16709811356501492,0.3708621757369581
0.08888456316492532,0.04979789746734087,0.16549057888478647,0.37046110391691944
0.08783124908195927,0.04897858217548129,0.16391334294244908,0.3700626820290881
0.08679852366185681,0.04817316279303807,0.16236573668392174,0.3696669482660019
0.08578593440547105,0.047381395415226624,0.1608471062077088,0.3692739369847009
0.08479303897666085,0.04660304064096932,0.15935681242133937,0.3688836789084877
0.08381940497334822,0.045837863482128816,0.15789423070558817,0.36849620131928007
0.08286460970373888,0.04508563327485138,0.1564587505863133,0.36811152824097826
0.0819282399675913,0.0443461235929653,0.155049775413719,0.36772968061425526
0.08100989184241986,0.04361911216337411,0.15366672204889498,0.36735067646315045
0.08010917047452082,0.042904380783388985,0.152309020557454,0.36697453105383915
0.07922568987470974,0.04220171523994931,0.15097611391010846,0.36660125704592894
0.07835907271866549,0.041510905230675244,0.14966745769003031,0.3662308646366216
0.07750895015177672,0.040831744286707605,0.14838251980684403,0.3658633616980601
0.07667496159838866,0.04016402969728122,0.1471207802170953,0.3654987539081681
0.07585675457534874,0.03950756243598713,0.14588173065105003,0.3651370448752802
0.07505398450975748,0.03886214708868052,0.14466487434568331,0.3647782362568379
0.07426631456082633,0.03822759178298529,0.1434697257837163,0.36442232787242346
0.07349341544575122,0.03760370811935804,0.14229581043856476,0.36406931781138696
0.07273496526951007,0.03699031110366707,0.14114266452505841,0.36371920253531254
0.07199064935849753,0.03638721908124698,0.14000983475581363,0.36337197697555557
0.07126016009790603,0.035794253672392196,0.13889687810311768,0.3630276346260769
0.07054319677277521,0.035211239709250275,0.13780336156620732,0.36268616763178685
0.06983946541261848,0.03463800517407861,0.13672886194381983,0.3623475668726047
0.06914867863955343,0.03407438113883182,0.13567296561188802,0.36201182204342386
0.06847055551985282,0.033520201706043085,0.13463526830627992,0.36167892173017746
0.0678048214188397,0.03297530395096854,0.1336153749104465,0.3613488534821735
0.06715120785905077,0.032439527864962736,0.1326128992478881,0.36102160388087756
0.06650945238159639,0.03191271630005199,0.1316274638793118,0.36069715860529905
0.06587929841064155,0.03139471491467938,0.1306586999043875,0.36037550249414196
0.06526049512094023,0.030944078055828217,0.12970624676799503,0.36005661960486335
0.06465279730835383,0.03058166550313912,0.12876975207084862,0.35974049326978697
0.06405596526328322,0.030226920224646348,0.12784887138441836,0.35942710614940065
0.06346976464695464,0.029879672429463766,0.12694326807004286,0.35911644028297496
0.06289396637048789,0.029539756075347423,0.12605261310213067,0.358808477136617
0.06232834647669194,0.029207008786189315,0.12517658489537165,0.35850319764888827
0.061772686024517576,0.028881271771330153,0.12431486913585643,0.3582005822740888
0.06122677097611545,0.028562389746642824,0.12346715861602586,0.3579006110233234
0.06069039208643612,0.028250210857355018,0.12263315307334932,0.3576032635034486
0.0601633447953141,0.02794458660257093,0.12181255903266464,0.35730851895400106
0.05964542912198423,0.027645371761450876,0.1210050896520829,0.35701635628219575
0.059136449561971505,0.02735242432101781,0.12021046457238382,0.3567267540960939
0.05863621498630189,0.027065605405549364,0.11942840976982239,0.3564396907360152
0.058144538542983126,0.026784779207523868,0.11865865741227011,0.3561551443042832
0.05766123756070263,0.026509812920089137,0.11790094571860776,0.35587309269337997
0.05718613345469403,0.026240576671007432,0.1171550188213133,0.35559351361258174
0.05671905163472196,0.025976943458064117,0.11642062663215058,0.3553163846131552
0.0562598214151398,0.025718789085888427,0.11569752471090666,0.35504168311216966
0.0558082759269688,0.02546599210416811,0.11498547413710192,0.3547693864150021
0.055364252031959715,0.025218433747220437,0.11428424138460103,0.35449947173659047
0.05492759023858751,0.02497599787489302,0.11359359819907033,0.3542319162214954
0.05468643317874894,0.024738570914765945,0.11291332147820454,0.35396669696282945
0.05449996107457128,0.02450604180561866,0.11224319315467213,0.3537037910201025
0.054316640119213055,0.02427830194214764,0.1115830000817093,0.35344317543604387
0.05413637787034575,0.024055245120893964,0.11093253392130475,0.35318482725243827
0.05395908459764759,0.023836767487360633,0.11029159103491937,0.3529287235250339
0.05378467320633584,0.02362276748429426,0.10965997237668379,0.3526748413375611
0.053613059162799015,0.02341314580110243,0.1090374833890082,0.3524231578149065
0.05344416042227279,0.023207805324382935,0.1084239339005657,0.3521736501354802
0.053277897358504134,0.023006651089539476,0.10781913802658427,0.35192629554282373
0.05311419269535006,0.022809590233462962,0.10722291407139384,0.3516810713564834
0.05295297144025862,0.022616531948251417,0.10663508443318737,0.3514379549821961
0.052794160819580715,0.02242738743594941,0.10605547551093952,0.3511969239214138
0.05263769021566367,0.022242069864277347,0.1054839176134299,0.35095795578020483
0.052483491105678515,0.022060494323337565,0.10492024487033524,0.3507210282775559
0.052331497002132965,0.021882577783273516,0.10436429514532897,0.3504861192531118
0.05218164339502579,0.021708239052855016,0.10381590995116285,0.3502532066743772
0.052033867695596814,0.021537398738975755,0.10327493436665391,0.35002226864340336
0.051888109181630504,0.021369979207043532,0.10274121695557548,0.3497932834029961
0.051744308944269235,0.021205904542234255,0.10221460968736862,0.34956622934245873
0.05160240983629788,0.021045100511605352,0.10169496785966281,0.3493410850028985
0.051462356421857036,0.02088749452703742,0.1011821500225536,0.3491178290821164
0.051324094927548136,0.020733015608989547,0.1006760179045818,0.3488964404391054
0.051187573194891534,0.020581594351053445,0.10017643634041518,0.3486768980981735
0.05105274063410109,0.020433162885286293,0.09968327320015047,0.34845918125271147
