jointFR1,jointFR2,jointFR3,force
5.970409886408222,5.679501487560546,7.210163018449089,6.143147288231913
5.639256267467421,5.367075354040676,6.8002704666544425,5.801177471377765
5.325970579196632,5.071459319062548,6.472009299845393,5.477692788527436
5.029597936515948,4.791755967691649,6.162557250679788,5.171704519765615
4.749234303207308,4.527115653755135,5.867141250548034,4.882276616953361
4.484023787926595,4.276733960082517,5.585136389178382,4.608522902283224
4.233156083921462,4.039849293713754,5.315945381842498,4.3496044157319655
3.995864044819569,3.815740608903927,5.058997351434089,4.104726903499481
3.7714213892575277,3.603725251134631,4.813746664184633,3.873138439942721
3.5591405275049013,3.4031569157029815,4.5796718166550585,3.654127175911401
3.3583705036013503,3.2134237148005855,4.356274371746111,3.447019206769171
3.168495046869254,3.033946347318281,4.14307794156951,3.2511765537406623
2.988930726990337,2.8641763659186763,3.9396272151169827,3.0659952525627214
2.8191252071434727,2.7035945362084224,3.745487028755055,2.890903543738085
2.658555589993211,2.5517092831167845,3.5602414776602593,2.725360158992584
2.5067268515954013,2.4080552198469434,3.383493066392443,2.6159430150634586
2.363170358548373,2.272191755012711,3.214861896883149,2.5148043033136287
2.22744246396632,2.14370177380637,3.053984892191911,2.418182117899956
2.1063922138157514,2.0221903892640576,2.9005150544557705,2.3258746796520318
2.018819020228873,1.9072837599040922,2.7541207555266802,2.2376892246326983
1.9347483853442846,1.798627970211525,2.6346316990117367,2.153441601229138
1.854041360038377,1.7076055905598275,2.564361340246065,2.072955885256641
1.776564496335246,1.6347228616297078,2.5135506638954945,1.9960640122695197
1.7021896296608507,1.5685232225498391,2.463934102801524,1.9226054263096788
1.6307936697200582,1.504961213855383,2.415476934711502,1.8524267443577802
1.5622583996547699,1.4439322762158722,2.368145657609871,1.785381435784809
1.496470283154933,1.3853359892332437,2.321907941310185,1.7213295161332627
1.4333202792072368,1.3290759076206209,2.2767325810897914,1.6601372545871809
1.3727036641788146,1.2750594038685348,2.232589453278536,1.60167689451891
1.3145198609452757,1.2231975171414355,2.1894494727167433,1.5458263865278616
1.258672274783932,1.1734048081575674,2.1472845520014525,1.492469133412681
1.2050681357641486,1.1255992198150706,2.106067562443449,1.4414937465432351
1.1536183473773967,1.079701943336562,2.0657722966610157,1.3927938131226716
1.1042373411597786,1.0356372897135409,2.026373432739596,1.3462676738526353
1.0568429370696284,0.9933325662405663,1.9878464998896626,1.3018182105364746
1.0113562093921689,0.9527179579375544,1.9501678455380365,1.259352643176086
0.967701357952301,0.9137264136665018,1.913314603790777,1.2187823361379266
0.9354400039233371,0.8762935367566385,1.8787436356212521,1.1800226129826945
0.9114017212603066,0.8403574799594016,1.8491858925857065,1.1429925795713216
0.8880926059143762,0.8058588445616774,1.82022162237115,1.1076149550772445
0.8654868539518482,0.7727405834926002,1.7918354053358319,1.0738159105514697
0.8435596734891595,0.7409479082656967,1.7640123261586202,1.041524914702748
0.8222872426612637,0.7104281996044592,1.7367379546512287,1.0106745865702988
0.801646669387388,0.6811309216054411,1.7099983273601647,0.9812005547809155
0.781615952856184,0.6530075392987738,1.6837799299246954,0.953041323096095
0.7621739466557017,0.6260114394715213,1.6580696801585946,0.9261381419679869
0.7433003234768739,0.6081567603788156,1.6328549118248206,0.9004348858355258
0.7249755413223108,0.5933262939856272,1.6081233590736248,0.8758779359041333
0.7071808111551845,0.5789475832128352,1.5838631415158575,0.8524160681638516
0.6898980659258331,0.5650043499576693,1.5600627499044686,0.8300003464117246
0.6741782694232011,0.5514809652527441,1.5367110323983657,0.8085840200547186
0.663157797387935,0.5383624220011289,1.5137971813839124,0.7881224264794877
0.6523627370784775,0.52563430888519,1.4913107208304164,0.7685728977848211
0.6417872430693319,0.5132827853980926,1.469241494156982,0.7498946716817677
0.6314256572138675,0.5012945579490804,1.4475796525890807,0.7320488063751297
0.6212725016923688,0.4896568569957998,1.4263156439841262,0.7149980992483602
0.6113224723408033,0.4783574151589692,1.405440202106234,0.6987070091818504
0.6015704322484741,0.46738444627666537,1.3849443363312088,0.6831415823422039
0.5920114056132345,0.4567266253573545,1.3648193217636102,0.6682693812873419
0.5826405718434222,0.44637306939259463,1.3450566897485388,0.6540594172392351
0.5734532598961467,0.43631331899203657,1.3256482187615308,0.6404820853826754
0.5644449428420006,0.4265373208049958,1.306585925660661,0.6275091030548369
0.555611232646699,0.4170354106944196,1.287862057285646,0.615113450696415
0.5469478751605529,0.40779829763057623,1.2694690823893908,0.6032693154409208
0.5384507453070789,0.3988170482732187,1.2513996838880423,0.5919520372242139
0.5301158424624173,0.39008307221234023,1.233646751416229,0.581138057301639
0.5219392860175857,0.38158810783894853,1.216203374174718,0.5708048690651603
0.5139173111159447,0.3733242088185322,1.1990628340582878,0.5609309710577006
0.5060462645585696,0.36528373114108653,1.1822185990521246,0.5514958220864933
0.4983226008705402,0.35745932072270964,1.1656643168855632,0.5424797983416313
0.4907428785214603,0.34984390153487027,1.1493938089324638,0.5338641524302098
0.4833037562938005,0.34243066423849217,1.1334010643479833,0.5256309742404469
0.4760019897929359,0.3352130553009995,1.1176802344319288,0.5177631535540081
0.46883442809300874,0.32818476657541945,1.1022256272093136,0.5102443443284105
0.46179801051299896,0.32133972532155525,1.0870317022191238,0.503058930574869
0.45488976351762384,0.3146720846501085,1.072093065502699,0.4961919937602974
0.44810679773791723,0.30817621437147064,1.0574044647834906,0.4896292816653492
0.4414463051065596,0.3018466922316973,1.0429607848303193,0.4833571786334412
0.43490555610323733,0.29567829551894304,1.0287570429965813,0.47736267714859676
0.42848189710551304,0.28966599302436263,1.0147883849281851,0.4716333506827388
0.4221727478408797,0.28380493734218376,1.0010500804332965,0.4661573277557066
0.41597559893585445,0.278090457494321,0.9875375195072765,0.46092326715380916
0.4098880095581451,0.2729665343751547,0.9742462085064678,0.4559203342551499
0.4039076051480893,0.2680485623575035,0.9611717664647603,0.45113817841227366
0.3980320752357294,0.2632313615849813,0.9483099215471247,0.44656691134489235
0.39225917134003624,0.25851231658080354,0.9356565076345469,0.44219708649756
0.3865867049469471,0.25388890200757475,0.9232074610350327,0.4380196793191874
0.3810125455630206,0.2493586788105202,0.9109588173155816,0.43402606842320834
0.37553461884164807,0.24491929054568984,0.898906708250238,0.4302080175890532
0.370150904778889,0.2405684598838117,0.8870473588795398,0.42655765856734557
0.3648594359761225,0.23630398528094498,0.8753770846768842,0.4230674746529141
0.3596582959668249,0.2321237378075497,0.8638922888175109,0.41973028499131665
0.35454561760489595,0.2280256581280079,0.8525894595459917,0.4165392295861135
0.3495195815120659,0.22400775362305425,0.8414651676382918,0.41348775497557916
0.34457841458201754,0.22006809564794705,0.8305160639546174,0.41056960054895086
0.33972038853895803,0.2162048169195946,0.8197388770794458,0.40777878547364754
0.33494381854846944,0.21241610902618502,0.8091304110452686,0.4051095962061625
0.33024706187855823,0.20870022005321354,0.7986875431367289,0.4025565745605608
0.3256285166089101,0.2050554523200946,0.7884072217719769,0.40011450630967543
0.32108662038644104,0.20148016022187165,0.778286464458195,0.39777841029520306
0.3166198492253143,0.19797274817078692,0.7683223558183749,0.3955435280239747
0.3122267163496686,0.1945316686327656,0.7585120456865486,0.39340531372868326
0.30790577107737843,0.1911554202541127,0.7488527472687958,0.391359424872322
0.30365559774323325,0.1878425460739559,0.7393417353674536,0.38940171307652055
0.29947481465999354,0.18459163181820848,0.7299763446660745,0.3875282154548403
0.29536207311584184,0.18140130427102585,0.7207539680727659,0.38573514633294925
0.29131605640681135,0.17827022971995354,0.7116720551196531,0.3840188893383942
0.2873354789028312,0.17519711247113456,0.7027281104162992,0.3823759898434639
0.283419085146084,0.17218069343115527,0.6939196921549993,0.3823072356230567
0.2795656489804275,0.1692197487522592,0.6852444106659612,0.3828666961471672
0.27577397271067866,0.16631308853783977,0.6766999270204601,0.3833705635675807
0.2720428862906137,0.1634595556052728,0.6682839516801369,0.383821703944754
0.26837124653857986,0.16065802430329823,0.6599942431906813,0.3842228495724692
0.26475793637966316,0.15790739938130927,0.6518286069182222,0.3845766050442997
0.26120186411339763,0.15520661490803,0.6437848938268018,0.38488545304755417
0.2577019627060447,0.1525546332371961,0.6358609992953916,0.3851517598969021
0.2542571891065091,0.14995044401797608,0.6280548619729622,0.38537778081933927
0.2508665235849978,0.14739306324797719,0.6203644626701796,0.38556566500162437
0.2475289690935632,0.14488153236679702,0.612787823286369,0.38571746041083044
0.2442435506477074,0.1424149173881758,0.6053230057704222,0.38583511839816786
0.24100931472825796,0.1399923080689116,0.597968111114404,0.38592049809578866
0.23782532870275686,0.1376128171127825,0.5907212783786402,0.3859753706158435
0.2346906802656358,0.13527557940781987,0.5835806837471362,0.3860014230606522
0.23160447689647964,0.13297975129534945,0.5765445396122082,0.3860002623524442
0.22856584533570806,0.1307245098692983,0.5696110936872649,0.38597341889076053
0.22557393107703305,0.1285090523043485,0.5627786281467164,0.385922350045228
0.22262789787607454,0.12633259521157825,0.5560454587920212,0.38584844349109415
0.21972692727454227,0.1241943740203042,0.549409934242935,0.3857530203945583
0.21687021813941476,0.12209364238490772,0.5428704351530522,0.385637338454635
0.2140569862165698,0.12002967161547529,0.5364253734487698,0.3855025948079809
0.2112864636983417,0.11800175013115555,0.5300731915908399,0.3853499288028227
0.20855789880450246,0.11600918293518014,0.5238123618577089,0.38518042464785784
0.20587055537618248,0.11405129111055223,0.517641385649872,0.3849951139417286
0.20322371248226725,0.11212741133545212,0.5115587928145058,0.3847949780884269
0.2006166640378236,0.1102368954174644,0.5055631409896615,0.38458095060374287
0.19804871843412705,0.10837910984576005,0.4996530149673486,0.38435391931764396
0.19551919817987848,0.10655343536042883,0.49382702607483875,0.3841147284772469
0.19302743955321497,0.10475926653817924,0.48808381157356906,0.38386418075484874
0.19057279226413434,0.10299601139367287,0.4824220340750365,0.3836030391652664
0.18815461912696865,0.10126309099579145,0.47684038097310055,0.38333202889656137
0.18577229574255502,0.09955993909816818,0.47133756389213466,0.3830518390580272
0.1834252101897671,0.0978860017833526,0.4659123181504883,0.3827631243491595
0.1811127627260823,0.0962407371200018,0.46056340223874614,0.38246650665314874
0.17883436549687343,0.0946236148325258,0.4552895973122797,0.3821625765582848
0.17658944225312487,0.09303411598263939,0.4500897066976215,0.3818518948105095
0.1743774280772845,0.09147173266230313,0.4449625554121941,0.3815349937002075
0.1721977691169754,0.08993596769755458,0.4399069896969596,0.3812123783861884
0.17004992232629923,0.08842633436276132,0.434921876561557,0.3808845281596773
0.1679333552144762,0.0869423561048479,0.43000610334152145,0.3805518976510114
0.1658475456015739,0.08548356627706633,0.425158577267192,0.38021491798161533
0.16379198138108836,0.08404950788190563,0.42037822504392675,0.3798739978637118
0.16176616028914867,0.08263973332275465,0.415663992443261,0.3795295246501149
0.1597695896801252,0.08125380416394523,0.4110148439046597,0.37918186533635345
0.15780178630843048,0.07989129089882807,0.4064297621475206,0.3788313675172609
0.15586227611630854,0.07855177272554337,0.4019077477931099,0.3784783603000833
0.15395059402741706,0.07732616465670289,0.39744781899610904,0.3781231551760583
0.1520662837460138,0.07616164539499642,0.39304901108547763,0.3777660468523293
0.150208897561565,0.07501537523112117,0.388710376214336,0.3774073140459864
0.1483779961586016,0.07388704299884646,0.3844309830185926,0.37704722024192894
0.14657314843165406,0.07277634352579404,0.38020991628404,0.37668601441618277
0.14479393130510404,0.07168297749615288,0.3760462766216657,0.376323931726227
0.143039929557796,0.07060665131725802,0.37193918015092287,0.3759611941698099
0.14131073565225855,0.06954707698990176,0.3678877581907203,0.37559801121367986
0.1396059495683901,0.06850397198225161,0.3638911569578993,0.3752345803935777
0.1379251786414688,0.0674770591072546,0.3599485372729727,0.3748710878867947
0.1362680374043523,0.06646606640341174,0.35605907427290706,0.37450770905852204
0.13463414743373692,0.06547072701880935,0.35222195713074456,0.3741446089831786
0.1330231372003509,0.06449077909830153,0.34843638878185534,0.37378194294184586
0.13143464192296112,0.06352596567373908,0.3447015856566338,0.3734198568968812
0.12986830342607672,0.06257603455714505,0.3410167774194439,0.3730584879447444
0.12832377000123674,0.06164073823674182,0.3373812067136397,0.3726979647480182
0.12680069627177362,0.060719833775736365,0.3337941289124773,0.3723384079475597
0.12529874306094843,0.05981308271377611,0.33025481187576,0.3719799305556828
0.12381757726335557,0.05892025097098791,0.3267625357120443,0.37162263833122533
0.12235687171950096,0.058041108754519566,0.32331659254625444,0.3712666301373213
0.12091630509345849,0.057175430467503785,0.31991628629255375,0.3709119982826564
0.11949556175351478,0.056322994620367106,0.31656093243232153,0.37055882884695635
0.11809433165571381,0.05548358374441237,0.3132498577970997,0.37020720199141943
0.11671231023021766,0.054656984307601075,0.30998240035636715,0.36985719225477376
0.11534919827040066,0.05384298663247017,0.3067579090100121,0.3695088688356096
0.11400470182459874,0.053041384816114145,0.30357574338537163,0.36916229586161087
0.11267853209043721,0.052251976652171905,0.3004352736387188,0.3688175326462718
0.11137040531166364,0.05147456355475499,0.29733588026107305,0.36847463393367397
0.11008004267741422,0.05070895048425933,0.29427695388822217,0.36813365013185917
0.108807170223845,0.04995494587500293,0.2912578951148379,0.36779462753531655
0.10755151873806153,0.04921236156463521,0.28827811431258454,0.3674576085370791
0.10631282366428224,0.04848101272526428,0.28533703145211087,0.3671226318308972
0.10509082501217379,0.047760717796251684,0.2824340759288213,0.366789732603945
0.10388526726729777,0.04705129841862471,0.27956868639233545,0.36645894272048307
0.10269589930361098,0.046352579371059466,0.2767403105795345,0.3661302908968964
0.1015224742979627,0.04566438850738813,0.2739484051511054,0.36580380286848957
0.1003647496465346,0.0449865566955861,0.27119243553149164,0.3654795015484238
0.09922248688317062,0.04431891775819691,0.26847187575216647,0.365157407179148
0.09809545159954572,0.04366130841415239,0.26578620829814237,0.36483753747666514
0.09698341336712427,0.04301356822194968,0.2631349239576384,0.36451990776796495
0.0958861456608601,0.042375539524145134,0.260517521674823,0.3642045311219295
0.09480342578459203,0.04174706739312878,0.2579335084055605,0.3638914184740115
0.0937350347980902,0.04112799957814289,0.25538239897608217,0.3635805787449692
0.09268075744570928,0.04051818645351013,0.2528637159445162,0.36327201895393124
0.09164038208660732,0.03991748096803788,0.2503769894652017,0.3629657443260488
0.09061370062648867,0.03932573859556521,0.2479217571557204,0.3626617583949785
0.08960050845083195,0.03874281728662293,0.2454975639665855,0.3623600631004431
0.08860060435956482,0.038168577421174354,0.2431039620535158,0.36206065888108563
0.08761379050314817,0.03760288176240867,0.24074051065224045,0.361763544762837
0.086639872320034,0.03704559541155855,0.23840677595577153,0.36146871844300077
0.0856786584754621,0.036496585763713285,0.2361023309940864,0.36117617637025623
0.08472996080156163,0.03595572246460249,0.23382675551616305,0.36088591382076207
0.08379359423872476,0.03542287736832306,0.23157963587431696,0.36059792497054144
0.08286937677822082,0.034907973112399404,0.2293605649107795,0.3603122029643231
0.08195712940601972,0.03444506736608843,0.22716914184647408,0.36002873998099627
0.08105667604779498,0.03398986421727723,0.22500497217193494,0.35974752729584014
0.08016784351507714,0.0335422261898079,0.22286766754031828,0.35946855533967303
0.07929046145252942,0.03310201849013755,0.22075684566246467,0.35919181375506803
0.07842436228631813,0.03266910894751568,0.21867213020396004,0.3589172914497659
0.07756938117355133,0.0322433679557485,0.21661315068415332,0.3586449766474199
0.07672535595275987,0.03182466841650239,0.2145795423770882,0.3583748569357914
0.07589212709539572,0.03141288568409506,0.21257094621430261,0.3581069193125175
0.07506953765832326,0.031007897511729887,0.21058700868945923,0.3578411502285648
0.07425743323727964,0.030609583999126888,0.2086273817647637,0.3575775356294736
0.07345566192128164,0.030217827541508313,0.20669172277913228,0.35731606099449564
0.07266407424795618,0.029832512779894294,0.20477969435807108,0.35705671137372985
0.07188252315977309,0.02945352655267164,0.20289096432523057,0.3567994714233389
0.07111086396115887,0.0290807578483937,0.20102520561559678,0.35654432543894543
0.07034895427647088,0.028714097759775792,0.1991820961902857,0.35629125738729117
0.06959665400881213,0.02835343943884866,0.19736131895290887,0.3560402509362367
0.068853825299667,0.027998678053235804,0.19556256166747166,0.35579128948318317
0.06812033248933937,0.02764971074352046,0.19378551687777623,0.3555443561819923
0.06739604207817425,0.02730643658167009,0.19202988182829528,0.3552994339684671
0.06668082268854565,0.026968756530486415,0.19029535838648703,0.3550565055844732
0.06597454502759274,0.026636573404051622,0.18858165296651896,0.3548155536007549
0.06527708185068776,0.02630979182913956,0.18688847645437434,0.35457656043851227
0.06458830792561882,0.025988318207566696,0.18521554413431107,0.3543395083897991
0.06390809999747206,0.025672060679452324,0.1835625756166439,0.35410437963679386
0.06323633675419703,0.025360929087363926,0.18192929476682607,0.35387115627000254
0.06257289879284031,0.025054834941321436,0.18031542963579983,0.35363982030543994
0.06191766858643265,0.024753691384635068,0.17872071239159348,0.35341035370084084
0.061270530451515016,0.024457413160555108,0.17714487925213795,0.35318273837094605
0.060631370516289605,0.024165916579707514,0.1755876704192778,0.3529569562019098
0.06000007668938205,0.02387911948829663,0.17404883001395377,0.35273298906486905
0.05937653862920159,0.02359694123705075,0.17252810601253432,0.3525108188287148
0.05876064771388609,0.02331930265089116,0.17102525018426884,0.352290427372109
0.05815229701181927,0.023046125999304334,0.16954001802984764,0.35207179659477406
0.0575513812527079,0.022777334967398144,0.16807216872103736,0.3518549084281013
0.05695779679920671,0.022512854627622703,0.16682460621477246,0.3516397448451035
0.05637144161907951,0.022252611412137857,0.1661132872206852,0.35142628786974905
0.05579221525788486,0.021996533085810677,0.16540595743111197,0.35121451958570316
0.05522001881217532,0.021744548719824175,0.16470259134165532,0.3510044221445102
0.05465475490319927,0.021496588665882888,0.1640031638139834,0.35079597777324156
0.05409632765109472,0.021252584530997487,0.16330765005893766,0.3505891687816367
0.053544642649564704,0.0210124691528345,0.16261602562050181,0.3503839775687636
0.05299960694102431,0.020776176575614813,0.16192826636057656,0.35018038662922024
0.05246112899220928,0.020543642026548292,0.16124434844453783,0.3499783785589021
0.05192911867023667,0.02031480189278806,0.16056424832753735,0.3497779360603567
0.05140348721910816,0.020089593698893793,0.15988794274150986,0.34957904194774836
0.05088414723664693,0.01986795608478814,0.15921540868285722,0.34938167915144747
0.0503710126518589,0.019649828784195134,0.15854662340077286,0.3491858307222695
0.049863998702709966,0.019435152603548278,0.15788156438618728,0.3489914798353805
0.04936302191431036,0.019223869401355065,0.1572202093612971,0.34879860979388055
