jointMR1,jointMR2,jointMR3,force
6.140423154552774,5.571079118888232,7.275728109727773,6.143147288231913
5.798647359446299,5.266639077911172,6.865234826634026,5.801177471377703
5.475329907080361,4.978516856129048,6.476986665433165,5.477692788931179
5.1694840594093545,4.705843378903925,6.109793380843755,5.1717045201642176
4.880175628834525,4.447795769657956,5.762528129577285,4.8822766163756395
4.606520183631303,4.203594895400096,5.438343996291015,4.608522899409359
4.3476804018985815,3.9725030426390986,5.134237620613337,4.349604409073921
4.10286356613867,3.753821716756669,4.846571626937163,4.104726891551636
3.871319190995845,3.5468895582826376,4.574466751186734,3.87313842130589
3.6523367770784314,3.3510803698623,4.330402760585244,3.654127149393121
3.4452436841651837,3.165801248035975,4.134172139550453,3.447019171462886
3.2494031174526143,2.990490814263136,3.9595163467181256,3.2511765090862403
3.064212220836972,2.8246175399192848,3.7918708546850954,3.065995198390505
2.8891002715435734,2.667678160273668,3.6309572884060084,2.8909034802984737
2.723526970718444,2.519196172721202,3.476508297417219,2.7253600869730064
2.5669808248832244,2.3806458639447117,3.3282671194272235,2.568852619354807
2.4333770960350245,2.267796794129448,3.1859871611887742,2.4208960109528044
2.3320521791745223,2.160052163277128,3.0494315959677256,2.2810310733036854
2.234782694409019,2.057184990769665,2.9183729769509017,2.148823118760698
2.1414077325330343,1.958978325155812,2.792592865961312,2.035385394935113
2.051772755193672,1.865224802085801,2.6718814768741677,1.9361874963529333
1.9657293427180387,1.7757262217128678,2.5560373331511617,1.854602740586817
1.8831349519268035,1.6902931447047493,2.444866938933624,1.7777597919316253
1.8038526835380966,1.608744506045941,2.338184463157318,1.7039910195141312
1.7277510587816276,1.5309072458475645,2.2646857522564763,1.6331744488127733
1.6547038048580254,1.4566159564161523,2.2126951124296568,1.5651929346695013
1.5845896488928521,1.3857125448656318,2.1621250638882694,1.4999339701330934
1.517292120048673,1.3180459105882676,2.1140892492742025,1.4372895028723318
1.4526993594719235,1.253471636930449,2.079182466082133,1.3771557588590084
1.390703937764104,1.1974108028861599,2.045023464599428,1.3194330730326171
1.3312026796792096,1.151120473410754,2.011591481216558,1.2640257266700525
1.2740964957610637,1.1066851287847566,1.9788664634871551,1.2108417911945728
1.2192902206456275,1.0640307351654652,1.9468290424309496,1.1597929781688823
1.1666924577642415,1.0230862011252317,1.9154605059878653,1.1202618356541862
1.1162154301942244,0.9837832609858188,1.884742773573965,1.096998276963387
1.0677748374133282,0.9460563627739029,1.8546583716920717,1.0744247370783915
1.029744938707253,0.9098425606147429,1.8251904105519468,1.052516417099024
1.003299890027547,0.8750814113881931,1.796322561656861,1.03124951377573
0.9776503427668248,0.8417148754782857,1.7680390363152694,1.0106011771957681
0.9527682579464667,0.8096872214542268,1.7403245650380872,0.9905494703168964
0.9286266951417381,0.7878798577926844,1.7131643777837857,0.9710733302668971
0.9051997668565748,0.7680324652585288,1.6865441850151557,0.9521525313308703
0.8852875053722881,0.7487981335808942,1.6604501595331553,0.9337676495517409
0.8707379913682447,0.7301545294778862,1.6348689190547652,0.915900028872713
0.8564921045731565,0.7120802170652444,1.6097875095031902,0.8985317487535812
0.842541741047893,0.694554619990994,1.5851933889801357,0.8816455931958329
0.8288790637720771,0.6775579852043927,1.5610744123911815,0.8652250211143634
0.8154964925408984,0.6610713482878983,1.5374188166965383,0.8492541379963977
0.8023866942745682,0.6450765002840182,1.5142152067606682,0.8337176687908396
0.7895425737229154,0.6295559559518769,1.4914525417753963,0.8186009319737989
0.7769572645483751,0.6144929233911931,1.4691201222322348,0.8038898147384529
0.7646241207713467,0.599871274974096,1.447207577420695,0.7895707492597025
0.7525367085625909,0.5856755195278063,1.4257048534303605,0.7756306899862778
0.7406887983679935,0.5718907757137145,1.4046022016354545,0.7620570919150592
0.7290743573516584,0.5585027465507668,1.3838901676415536,0.7488378898043735
0.7176875421438993,0.5454976950333496,1.363559580674977,0.7359614782849561
0.7065226918812728,0.5328624207960503,1.3436015433962158,0.7234166928290969
0.695574321526355,0.520584237779748,1.3240074221195783,0.711192791540238
0.68483711545549,0.508650952855489,1.3047688374219817,0.6992794377269649
0.6743059213032453,0.4970508453645004,1.2858776551245674,0.6876666832269407
0.6639757440527958,0.4857726475345243,1.2673259776315144,0.6763449524478385
0.6538417403619177,0.4748055257343913,1.249106135611092,0.6653050270938176
0.6438992131147199,0.4641390625304205,1.231210680004645,0.6545380315474495
0.6341436061896633,0.4537632395098259,1.2136323743498139,0.6440354188783676
0.6245704994348256,0.44366842083783165,1.1963641874048765,0.6337889574511513
0.6151756038417515,0.43384533751665155,1.1793992860616718,0.6237907181062063
0.6059547569096089,0.42428507231588686,1.1627310285350885,0.6140330618885386
0.5969039181917153,0.4149790453452189,1.1463529578176317,0.6045086283004439
0.5880191650168504,0.4065129538154415,1.1302587953880596,0.5952103240551966
0.5792966883780819,0.399019591406642,1.1144424351635618,0.5861313123098238
0.5707327889821576,0.39167986297109547,1.0988979376853973,0.5772650023560376
0.5623238734527986,0.38449002860753445,1.0836195245283409,0.5686050397493052
0.5540664506815265,0.3774464608076289,1.0686015729247023,0.560145296856939
0.5459571283199205,0.37054564041335536,1.0538386105940716,0.5518798638069179
0.5379926094074623,0.36378415273679077,1.0393253107703246,0.5438030398199717
0.5301696891293806,0.3571586838354308,1.0250564874177848,0.5359093249082285
0.5224852516991381,0.35066601693644406,1.0110270906287768,0.5281934119244559
0.5149362673604372,0.3443030290035479,0.9972322021951454,0.5206501789466415
0.5075197895038355,0.33806668744047874,0.9836670313466227,0.5132746819833255
0.5002329518932724,0.3319540469252792,0.970326910649232,0.5060621479857468
0.493072965998008,0.32596224636988547,0.9572072920572071,0.4990079681534704
0.48603711842566366,0.32008850599973027,0.9443037431121768,0.4921076915207605
0.47912276845224117,0.31433012454831055,0.9316119432836382,0.4853570188115222
0.47232734564516715,0.30868447656188647,0.9191276804449857,0.4787517965511694
0.46564834757558,0.3031490098096872,0.9068468474796147,0.47228801142429083
0.45908333761623554,0.29772124279519896,0.8947654390118412,0.46596178486747614
0.45262994282156105,0.2930549404522509,0.8828795482576086,0.45976936788713446
0.44628585188653314,0.28850143522621496,0.8711853639901621,0.45370713609257973
0.44004881318119643,0.28402944571151056,0.8596791676160717,0.44777158493508995
0.43391663285777327,0.27963721294820343,0.8483573303571836,0.44195932514405745
0.42788717302744295,0.2753230256225171,0.8372163105342645,0.43626707835172746
0.4219583500039933,0.27108521847871503,0.826252650948279,0.4306916728984117
0.4161281326116627,0.26692217079175806,0.8154629763554135,0.4252300398104056
0.4103945405546058,0.26283230489823317,0.8048439910321223,0.41987920894318675
0.40475564284552185,0.2588140847831582,0.794392476426627,0.4146363052827977
0.39920955629108856,0.2548660147203675,0.7841052888934492,0.4094985453986215
0.3937544440319434,0.2509866379642825,0.7739793575077025,0.4044632340410657
0.38838851413504727,0.24717453549096335,0.764011681956001,0.39952776087794517
0.3831100182363584,0.24342832478642878,0.75419933050098,0.3946895973636336
0.37791725023182726,0.23974665868031542,0.7445394380165411,0.3899462937353068
0.3728085450148102,0.23612822422303098,0.7350292040910611,0.3852954761308548
0.36778227725807455,0.232571741604633,0.7256658911959171,0.3807348438232743
0.3628368602386483,0.22907596311374023,0.7164468229167855,0.376262166566579
0.3579707447038353,0.22563967213485503,0.7073693822452853,0.37187528204848447
0.35318241777679055,0.2222616821825456,0.6984310099286306,0.3675720934453285
0.3484704019001149,0.21894083597099862,0.6896292028750575,0.3633505670748901
0.3438332538159912,0.21567600451752011,0.6809615126128801,0.3592087301429557
0.33926956358144716,0.21246608627861985,0.6724255438011195,0.3551446685796606
0.3347779536173874,0.20931000631737173,0.6640189527897384,0.35115652496181654
0.33035707779009243,0.20620671550079978,0.655739446227585,0.347242496517585
0.32600562052393767,0.20315518972609048,0.6475847797162384,0.3434008332100324
0.32172229594413454,0.20015442917448223,0.6395527565080168,0.33962983589623763
0.31750584704834717,0.19720345759173236,0.6316412262464774,0.3359278545587797
0.31335504490608324,0.19430132159410718,0.623848083747814,0.33229328660656327
0.3092686878848037,0.19144708999888504,0.6161712678216131,0.3287245752420731
0.3052456009017387,0.1886398531784047,0.6086087601295025,0.3252202078922804
0.3012846347004383,0.18587872243673131,0.6011585840802731,0.3217787147005339
0.2973846651511268,0.18316282940805217,0.5938188037601275,0.3183986670768951
0.2935445925739659,0.18049132547594993,0.5865875228967494,0.31507867630447856
0.28976334108436935,0.17786338121273704,0.5794628838559486,0.3118173921994679
0.28603985795954684,0.17527818583807064,0.5724430666696851,0.30861350182257763
0.2823731130254864,0.17273494669609601,0.5655262880943235,0.3054657282398285
0.27876209806361796,0.17023288875040193,0.558710800698011,0.30237282933059195
0.2752058262364309,0.16777125409609822,0.5519948919761288,0.2993335966409538
0.2717033315313474,0.16534930148835508,0.5453768834937913,0.29634685428052426
0.2682536682221809,0.16296630588677175,0.5388551300544229,0.29341145786090816
0.2648559103475378,0.1606215580149667,0.5324280188934745,0.29052629347412073
0.2615091512055433,0.15831436393480813,0.5260939688963819,0.28769027670931285
0.25821250286429936,0.15604404463472688,0.5198514298398964,0.2849023517062354
0.25496509568750547,0.15380993563157552,0.5136988816559631,0.28216149024394216
0.2517660778746949,0.15161138658552176,0.5076348337173513,0.2794666908632957
0.24861461501556192,0.14944776092748363,0.5016578241442649,0.27681697802189803
0.24550988965787537,0.14731843549863355,0.49576641913120123,0.2742114012801327
0.24245110088849467,0.14522280020152,0.48995921229335426,0.2716490345170558
0.23943746392702198,0.14316025766237106,0.4842348240318768,0.2691289751749286
0.23646820973164454,0.141130222904164,0.47859190091735404,0.26665034353123873
0.23354258461673677,0.13913212303006067,0.4730291150908592,0.2642122819971029
0.2306598498818101,0.13716539691682533,0.4675451636819883,0.26181395444098937
0.2278192814514131,0.13522949491785685,0.4621387682432958,0.25945454553674985
0.2250201695256015,0.13332387857548206,0.4568086742005717,0.25713326013498833
0.22226181824061086,0.13144802034217062,0.45155365031842676,0.2548493226568335
0.2195435453393803,0.1296014033103473,0.4463724881806683,0.2526019765092297
0.21686468185158836,0.12778352095048845,0.4412640016849734,0.25039048352088733
0.21422457178287516,0.12599387685720248,0.4362270265513797,0.24821412339808033
0.21162257181293823,0.12423198450300799,0.4312604198441401,0.24607219319950396
0.20905805100220032,0.12249736699953134,0.42636305950649445,0.24396400682944594
0.2065303905067603,0.12078955686586001,0.4215338439079379,0.24188889454855056
0.20403898330134757,0.11910809580379544,0.4167716914035775,0.2398462025014889
0.2015832339100131,0.11745253447976156,0.41207553990518075,0.23783529226087363
0.19916255814429812,0.11582243231313377,0.4074443464635398,0.2358555403867892
0.19677638284863347,0.11421735727076221,0.4028770868617888,0.23390633800132937
0.19442414565272959,0.11263688566747232,0.3983727552193199,0.23198709037756324
0.19210529473072852,0.11108060197233538,0.393930363605963,0.23009721654237317
0.18981928856689562,0.1095480986205068,0.38954894166610243,0.22823614889263102
0.18756559572763912,0.10803897583044175,0.3852275362524187,0.2264033328242028
0.18534369463965125,0.1065528414263015,0.3809652110689514,0.22459822637329055
0.18315307337397452,0.10508931066537408,0.3767610463231963,0.2228202998696432
0.18099322943580243,0.1036480060703368,0.372614138386951,0.22106903560118527
0.17886366955983146,0.10222855726619817,0.36852359946564506,0.21934392748963244
0.17676390951098828,0.10083060082175943,0.3644885572758889,0.21764448077667847
0.17469347389036172,0.09945378009544503,0.36050815473099607,0.21597021172035905
0.1726518959461759,0.09809774508535557,0.35658154963423105,0.21432064730120967
0.17063871738964675,0.09676215228340229,0.35270791437955484,0.2126953249378532
0.16865348821556989,0.09544666453338857,0.34888643565963995,0.21109379221166727
0.1666957665274925,0.0941509508929082,0.3451163141809399,0.20951560660019422
0.16476511836732907,0.09287468649893466,0.34139676438560085,0.20796033521897245
0.16286111754928337,0.091617552436982,0.33772701418001816,0.20642755457148
0.16098334549794613,0.09037923561372102,0.3341063046698396,0.2049168503068916
0.15913139109044117,0.0891594286329388,0.3305338899012258,0.20342781698536708
0.15730485050249776,0.08795782967473431,0.32700903660819214,0.201960057850595
0.1555033270583315,0.08677414237784808,0.3235310239658509,0.20051318460933207
0.15372643108421943,0.0856080757250236,0.3200991433493863,0.19908681721768326
0.15197377976565968,0.08445934393130772,0.31671269809860214,0.19768058367388347
0.1502449970080098,0.08332766633519495,0.3133710032878778,0.19629411981734735
0.1485397133005013,0.08221276729252913,0.31007338550138863,0.19492706913376365
0.14685756558353136,0.08111437607307437,0.3068191826134321,0.19357908256602196
0.14519819711913662,0.08003222675967481,0.30360774357373055,0.19224981833076418
0.14356125736455672,0.0789660581499223,0.30043842819756117,0.1909389417403642
0.14194640184879861,0.07791561366025568,0.29731060696058753,0.18964612503014625
0.14035329205211577,0.07688064123241783,0.2942236607982607,0.18837104719065853
0.1387815952883189,0.0758608932421988,0.29117698090966737,0.18711339380482903
0.13723098458983837,0.07485612641039713,0.28816996856570287,0.18587285688983124
0.13570113859546037,0.07386610171593155,0.2852020349214548,0.18464913474350414
0.13419174144066198,0.072890584311041,0.2822726008326819,0.18344193179516388
0.13270248265047258,0.07192934343850971,0.27938109667628397,0.18225095846066322
0.1312330570347917,0.07098215235085842,0.27652696217465045,0.18107593100155253
0.12978316458609518,0.07004878823144456,0.27370964622379224,0.17991657138820438
0.12835251037946444,0.06912903211741539,0.27092860672515506,0.17877260716676843
0.12694080447487516,0.0682226688244611,0.2681833104210183,0.1776437713298305
0.125547761821684,0.06732948687331575,0.26547323273338685,0.1765298021906507
0.12417310216525446,0.06644927841795628,0.26279785760628815,0.1754304432608637
0.12281654995566355,0.06558183917545185,0.2601566773513848,0.1743454431315271
0.12147783425843459,0.0647269683574162,0.2575491924968196,0.17327455535740788
0.12015668866724144,0.06388446860301872,0.2549749116392135,0.17221753834440184
0.11885285121853265,0.06305414591351033,0.25243335129873246,0.17117415523998522
0.11756606430802474,0.06223580958822239,0.24992403577715283,0.1701441738265988
0.1162960746090157,0.06142927216199834,0.2474464970188437,0.1691273664178737
0.11504263299247139,0.06063434934401796,0.2450002744746005,0.1681235097576048
0.11380549444883892,0.059850859957977565,0.2425849149682573,0.1671323849213869
0.11258441801154251,0.0590786258835882,0.24019997256600933,0.16615377722082875
0.11137916668211878,0.05831747199935711,0.23784500844837875,0.16518747611026446
0.11018950735694957,0.0575672261266183,0.2355195907847656,0.16423327509588362
0.10901521075555187,0.05682771897477812,0.23322329461051372,0.16329097164720513
0.1078560513503854,0.0560987840877446,0.23095570170643875,0.1623603671108235
0.10671180729814006,0.05538025779150918,0.2287164004807536,0.16144126662635597
0.10558226037246604,0.054671979142850324,0.226504985853341,0.16053347904452436
0.10446719589811065,0.053973789879130596,0.22432105914231104,0.1596368168473063
0.1033664026864275,0.05350060931226219,0.2221642279527971,0.15875109607009355
0.10227967297222373,0.05333341724896301,0.2200341060679325,0.15787613622579674
0.10120680235191298,0.053166292046218255,0.2179303133419599,0.1570117602308386
0.10014758972294219,0.052999278114503,0.21585247559542542,0.15615779433297855
0.09910183722446095,0.05283241767290847,0.2138002245124062,0.1553140680409166
0.09806935017920426,0.05266575084051528,0.21177319753972967,0.15448041405562118
0.09704993703655868,0.05249931572409594,0.20977103778813455,0.15365666820333373
0.09604340931678407,0.05233314850229642,0.20779339393533247,0.15284266937019772
0.09504958155636348,0.05216728350643418,0.20583992013092844,0.15203825943846846
0.09406827125445447,0.052001753298047904,0.20391027590315525,0.1512432832242555
0.09309929882041551,0.05183658874332986,0.20200412606738438,0.1504575884167561
0.09214248752238294,0.05167181908455898,0.2001211406363732,0.14968102551893445
0.09119766343687327,0.0515074720086619,0.1982609947322096,0.1489134477896083
0.09026465539938777,0.05134357371301057,0.19642336849991615,0.14815471118690213
0.08934329495599536,0.05118014896856493,0.19460794702268136,0.1474046743130288
0.08843341631587207,0.0510172211804748,0.19281442023867745,0.1466631983603622
0.08753485630477437,0.050854812446229136,0.19104248285943326,0.14593014705876586
0.08664745431942578,0.05069294361146304,0.18929183428972918,0.14520538662414262
0.08577105228279572,0.05053163432350738,0.1875621785489796,0.14448878570817125
0.08490549460025007,0.05037090308277248,0.18585322419407246,0.1437802153491992
0.08405062811655453,0.05021076729205476,0.1841646842436342,0.14307954892425753
0.08320630207371121,0.050051243303847026,0.18249627610369035,0.14238666210217113
0.08237236806960979,0.04989234646572971,0.1808477214946922,0.14170143279773179
0.08154868001747537,0.049734091163925576,0.179218746379882,0.1410237411269073
0.08073509410609533,0.04957649086508431,0.17760908089496463,0.14035346936305854
0.07993146876080803,0.04941955815637056,0.17601845927906457,0.1396905018941388
0.07913766460523647,0.04926330478392493,0.17444661980693632,0.1390347251808479
0.07835354442375064,0.04910774168976051,0.17289330472240527,0.13838602771571767
0.07757897312464318,0.04895287904715484,0.17135826017301348,0.13774429998310408
0.07681381770400214,0.04879872629460247,0.16984123614584345,0.13710943442006193
0.07605794721026612,0.048645292168384535,0.16834198640449838,0.13648132537808025
0.07531123270944728,0.04849258473380469,0.1668602684272149,0.13585986908565612
0.07457354725100776,0.04834061141515433,0.16539584334608315,0.13524496361168506
0.07384476583437513,0.04818937902444842,0.16394847588735573,0.13463650882964806
0.07312476537608423,0.048038893788986736,0.16251793431281958,0.1340344063825747
0.07241342467753106,0.04788916137778654,0.16110399036221246,0.13343855964876272
0.07171062439332662,0.04774018692693116,0.15970641919666062,0.1328488737082357
0.07101624700023745,0.04759197506387558,0.15832499934312128,0.13226525530991953
0.07033017676670111,0.047444529930755874,0.15695951263980468,0.13168761283952116
0.06965229972290427,0.047297855206737904,0.15560974418255902,0.13111585628809194
0.06898250363141145,0.04715195412944617,0.154275482272203,0.13054989722125723
0.06832067795833396,0.04700682951550561,0.15295651836277924,0.12998964874909918
0.0676667138450264,0.04686248378024094,0.151652647010718,0.1294350254966727
0.06702050408030119,0.04671891895655622,0.15036366582488836,0.12888594357514435
0.06638194307314982,0.046576136713032845,0.14908937541752376,0.12834232055353378
0.06575092682596043,0.046434138371281075,0.14782957935600094,0.1278040754310478
0.06512735290822191,0.046292924922566425,0.1465840841154591,0.12727112860998982
0.06451112043070434,0.04615249704374835,0.1453526990322409,0.12674340186923339
0.06390213002010625,0.046012855112551265,0.14413523625814073,0.12622081833824453
0.0633002837941593,0.0458739992222017,0.14293151071544408,0.12570330247164083
