jointMR1,jointMR2,jointMR3,force
5.93626029986466,5.710240814234188,7.561142364072515,6.15061208370106
5.612438369342132,5.394146032939813,7.134407423976283,5.823436590256138
5.305781600831875,5.095098483371816,6.7308485034015275,5.513799446304988
5.01538888091611,4.812187210813478,6.349224071017356,5.220765541034818
4.740406239000943,4.544549772640373,5.988358769226101,4.943449511683858
4.480024384092376,4.291369658309749,5.647139893806268,4.681013099088961
4.2334763702148095,4.05187384648656,5.324514060693922,4.432662643761521
4.000035383754941,3.8305133320188043,5.019484049957461,4.197646715024736
3.779012646364634,3.622751404153246,4.7311058175492935,3.9752538661421593
3.569755427388788,3.4259980665740577,4.476728445159786,3.764810508742936
3.3716451600991886,3.2396752601193954,4.260507752652769,3.565678900204999
3.1840956563140264,3.063235174532821,4.054112074369219,3.377255237994131
3.0066559957639014,2.8961586677154307,3.857104052213947,3.2056171075540467
2.863448626291243,2.73795376754022,3.6690656565781863,3.04572501663203
2.7267111080168926,2.588154251917439,3.489597334390653,2.894491049213023
2.5961560548148404,2.446318303024799,3.3183171946834733,2.751451830404008
2.4715087710059906,2.3147996037893215,3.154860230021609,2.616168672461026
2.3525066921655453,2.1902881718855824,2.9998051673744115,2.4882262617556528
2.2388988505514824,2.072341642197576,2.8549595858809407,2.3672314155328475
2.130445364070322,1.9606165417727313,2.7285657329839546,2.252811904751541
2.0269169477441236,1.854787330228058,2.6160893830280543,2.1446153394963265
1.9292335710861186,1.7545454638402698,2.507968028606955,2.0423081136352588
1.8373620461074545,1.673776815073392,2.404035143698156,1.9455744055753936
1.7496561081671036,1.608264852958719,2.304130540934153,1.8541152321350158
1.6659301104074486,1.5452712479882176,2.2081001307639907,1.76764755270987
1.58600662384525,1.484699914286988,2.126762207640915,1.6859034210607182
1.5164811631238853,1.4264584203752397,2.081195290029499,1.608629182191539
1.4591694394237302,1.3704578503571379,2.036779529756249,1.535584711922159
1.4040436636724132,1.3166126703809795,1.9934790898448969,1.4665426968864268
1.3510205232074088,1.2648406001704526,1.951259486518037,1.4012879528076014
1.3000198736844446,1.2150624894343371,1.91008753060542,1.3396167790167692
1.2509646187471175,1.1672021989693355,1.8699312717061904,1.2813363472882038
1.2037805942644049,1.121186486277767,1.830759944969477,1.2262641231679094
1.1583964569626517,1.076944895528626,1.7925439203645979,1.1742273180685217
1.1147435772851866,1.0344096516970438,1.7552546543186474,1.1250623704954583
1.0727559363190753,0.9935155587234435,1.7188646436054047,1.0786144548561454
1.0323700266346065,0.9541999015397217,1.6833473813753537,1.034737016386347
0.9935247568889671,0.9164023518155923,1.6486773152221634,0.9932913308055941
0.9561613600512202,0.8800648772838059,1.614829807186239,0.9541460873873963
0.9202233051111057,0.8451316545083299,1.5826673579124353,0.917176994199802
0.8896897317073982,0.8115489849647409,1.5541391237710898,0.8822664043379892
0.8717358787106043,0.7792652143070452,1.5264424310759046,0.8493029620331666
0.8542020520413569,0.7482306546999292,1.4995451566385083,0.8181812675813727
0.8370761340705294,0.7183975101000336,1.4734165518185605,0.7958076034955774
0.8203464365491321,0.6898659956749565,1.4480271820992434,0.7798662291289892
0.8040016830765332,0.6751753505026732,1.4233488693317025,0.7642933023142868
0.7880309923421321,0.6608503940465786,1.3993546365305953,0.7490783601342261
0.7724238621050048,0.6468801435454442,1.3760186551081208,0.734211305453146
0.757170153877702,0.6332540128154351,1.3533161944388503,0.7196823920923142
0.7422600782819663,0.6199617957311775,1.3312235736524483,0.705482210657717
0.7276841810456313,0.606993650462006,1.3097181155558952,0.6916016749903519
0.7134333296114221,0.5943400844268808,1.2887781025911709,0.678032009210489
0.6994987003297264,0.5819919399332936,1.268382734738505,0.6647647353287041
0.6858717662087188,0.5699403804672155,1.2485120892792672,0.6517916613977535
0.6725442851964595,0.5581768776027735,1.2291470823363515,0.6391048701805859
0.6595082889707758,0.5466931985019093,1.2102694321135474,0.6266967083109367
0.6467560722138587,0.535481393975756,1.19186162375884,0.6145597759240496
0.6342801823495757,0.5245337870808633,1.1739068757798996,0.6026869167361237
0.6220734097225395,0.5138429622247475,1.1563891079431925,0.5910712085520828
0.6101287781989292,0.503401754756495,1.139292910591147,0.5797059541822133
0.5984395361700015,0.4932032410193642,1.1226035153147382,0.5685846727491255
0.586999147940112,0.4832407288434579,1.1063067669215798,0.5577010913673587
0.5768579578614316,0.473507748457629,1.0903890966422876,0.5470491371787662
0.5674215889705123,0.46399804380080767,1.074837496520382,0.5366229297276175
0.5582280612346948,0.4547055642139163,1.0596394949334278,0.5264167736600763
0.5492685903573552,0.4456244564944585,1.04478313319541,0.5164251517334506
0.5405347600786069,0.43674905729675984,1.030256943192549,0.5066427181212728
0.5320185060740595,0.42807388586166295,1.016049926006883,0.4970642920009163
0.5237121005644829,0.41959363706027486,1.0021515314839395,0.48768485141108225
0.5156081376049787,0.4113031747371275,0.9885516387027643,0.4784995273670579
0.5076995190236422,0.40319752533881137,0.9752405373084126,0.46950359822222354
0.49997944098102315,0.3952718718148376,0.9622089096687645,0.4606924842648088
0.49244138112296293,0.38752154777811854,0.9494478138192161,0.45206174253941095
0.48507908630058866,0.37994203191307796,0.9369486671604069,0.44360706188326776
0.47788656083241005,0.37252894261997305,0.9247032308756782,0.4353242581677426
0.4708580552845631,0.36527803288458016,0.9127035950364312,0.4272092697359164
0.4639880557463082,0.3581851853629052,0.9009421643649649,0.41925815302759994
0.4572712735788952,0.35124640767108894,0.8894116446257017,0.41146707838348057
0.45070263561687673,0.3444578278711491,0.8781050296170098,0.40383232602049696
0.4442772748018764,0.3378156901436504,0.8670155887370582,0.3963502821708962
0.43799052122969423,0.33131635063882714,0.8561368550982943,0.3890174353777778
0.4318378935924848,0.32495627349807865,0.8454626141662834,0.3818303729402539
0.4258150909985415,0.31873202703815995,0.8349868928997063,0.3764107336832505
0.4199179851529967,0.31264028009074585,0.8247039493693324,0.3783008444491789
0.414142612883483,0.3066777984903991,0.8146082628347833,0.3800446498940021
0.40848516899550363,0.30084144170430804,0.8046945242588169,0.38165070794027844
0.40294199944293674,0.2951281595974713,0.7949576272397769,0.3831271064607472
0.3975095947997389,0.2895349893273103,0.7853926593436941,0.384481488566219
0.3921845840195299,0.2840590523619712,0.7759948938183542,0.38572107654327914
0.38696372847032995,0.27869755161685383,0.766759781672419,0.3868526945136914
0.3818439162322805,0.27344776870416027,0.7576829441034476,0.3878827898835474
0.37682215664671886,0.2683070612905015,0.7487601652593665,0.3888174536466146
0.37189557510549115,0.2632728605578333,0.7399873853186256,0.38966243960288227
0.36706140806987647,0.2583426687632145,0.7313606938749375,0.390423182550083
0.362316998308968,0.2535140568930934,0.7228763236131064,0.3911048155028771
0.3576597903478033,0.24878466240802444,0.7145306442630559,0.3917121859914927
0.35308732611596483,0.24415218707391223,0.7063201568197519,0.39224987148884816
0.3485972407877839,0.23961439487605912,0.6982414880172219,0.3927221940125868
0.34418725880567047,0.23516911001246749,0.6902913850454397,0.39313323394597466
0.339855190078467,0.23081421496300714,0.682466710499311,0.3934868431192803
0.3355989263470842,0.2265476486312205,0.6747644375494735,0.39378665719104033
0.33141643771001533,0.2223674045556852,0.6671816453251,0.39403610736651806
0.32730576930165634,0.21827152918799003,0.659715514499311,0.39423843148867754
0.32326503811666946,0.214258120234525,0.6523633230682095,0.394396684535117
0.3192924299739285,0.21032532505940377,0.645122442314987,0.3945137485526282
0.3153861966138688,0.20647133914596555,0.6379903329508732,0.39459234205935767
0.3115446529233375,0.2026944046144195,0.6309645414251241,0.3946350289429572
0.30776617428230313,0.19899280879330017,0.6240426963965375,0.3946442268816006
0.3040491940270299,0.19536488284251374,0.6172225053593559,0.39462221531330577
0.3003922010245635,0.19180900042585136,0.610501751416707,0.3945711429776557
0.2967937373536007,0.188323576430944,0.6038782901950592,0.39449303505272915
0.2932523960870358,0.18490706573471993,0.5973500468934259,0.39438979990883116
0.289766819171682,0.1815579620125189,0.5909150134613721,0.39426323549947395
0.28633569540086806,0.17827479658909273,0.584571245900098,0.3941150354089601
0.2829577584757982,0.17505613732980635,0.5783168616811574,0.3939467945749008
0.2796317851517474,0.17190058757042498,0.5721500372776016,0.39376001470301447
0.27635659346533703,0.16880678508394376,0.5660690058025635,0.3935561093906417
0.2731310410393007,0.16577340108298882,0.5600720547505176,0.3933364089745204
0.2699540234613123,0.1627991392563773,0.5541575238366923,0.3931021651175537
0.2668244727335968,0.1598827348384902,0.548323802930252,0.3928545551485071
0.2637413557901911,0.15702295371016978,0.5425693300771222,0.3925946861678392
0.2607036730788616,0.15421859152990675,0.5368925896084835,0.3923235989321542
0.2577104572048151,0.151468472894141,0.5312921103311292,0.3920422715291144
0.25476077163346983,0.14877145052554458,0.5257664637960728,0.39175162285400833
0.2518537094496715,0.14612640448821057,0.5203142626419373,0.39145251589858054
0.24898839217085733,0.1435322414287113,0.5149341590098138,0.3911457608621619
0.24616396861177994,0.1409878938420413,0.5096248430264299,0.3908321180946034
0.24337961379851003,0.13849231936149337,0.5043850413525974,0.390512300880014
0.2406345279295372,0.13604450007156554,0.49921351579405715,0.39018697806981706
0.23792793538188411,0.13364344184302956,0.49410906197195326,0.3898567765731952
0.23525908376024457,0.13128817368932794,0.4890705080503088,0.3895222837125527
0.23262724298723964,0.12925624911313802,0.4840967135179668,0.3891840494512284
0.23003170443297494,0.12750914849684417,0.47918656802259574,0.3888425885002994
0.22747178008215949,0.12578787781793407,0.4743389902544639,0.3884983823109508
0.22494680173712614,0.12409191167986203,0.46955292687776073,0.3881518809585518
0.222456120255164,0.12242074054236421,0.4648273515073924,0.3878035049242342
0.21999910481864818,0.12077387010538906,0.46016126372921007,0.3874536467794776
0.217575142236515,0.11915082071938818,0.4555536881617812,0.38710267277889665
0.21518363627569734,0.11755112682080501,0.4510036735578482,0.38675092436616487
0.21282400702119755,0.11597433639166074,0.44651029194372804,0.3863987195977262
0.21049569026352993,0.11442001044217123,0.44207263779498196,0.38604635448872027
0.20819813691232578,0.11288772251539156,0.43768982724674665,0.38569410428528905
0.2059308124349441,0.11137705821291724,0.433360997337207,0.38534222466722956
0.20369319631898353,0.10988761474071743,0.4290853052827359,0.38499095288472807
0.2014847815576418,0.10841900047422162,0.42486192778331366,0.38464050883272805
0.19930507415691123,0.1069708345418092,0.4206900603568997,0.38429109606628087
0.19715359266364985,0.10554274642590031,0.4165689167014579,0.3839429027600608
0.19502986771360428,0.10413437558087471,0.4124977280834363,0.3835961026150456
0.19293344159850628,0.10274537106708045,0.4084757427515402,0.38325085571521056
0.19086386785140075,0.1013753912002294,0.4045022253746646,0.38290730933693173
0.1888207108494023,0.10002410321550534,0.4005764565029468,0.38256559871364537
0.18680354543311128,0.09869118294573967,0.39669773205090464,0.38222584775817736
0.18481195654195734,0.09737631451304277,0.39286536280170226,0.3818881697450286
0.18284553886476598,0.09607919003329826,0.38907867393161033,0.3815526679547787
0.18090389650488195,0.09479950933296141,0.38533700455377407,0.3812194362826523
0.17898664265920605,0.09353697967762206,0.3816397072804505,0.3808885598131885
0.1770933993105334,0.09229131551182054,0.37798614780288675,0.3805601153628454
0.17522379693261161,0.0910622382096232,0.37437570448809354,0.3802341719922735
0.17337747420735566,0.08984947583549116,0.37080776799174675,0.3799107914899049
0.17155407775368875,0.08865276291498828,0.36728174088653964,0.37959002882840986
0.16975326186749778,0.08747184021490698,0.363797037305281,0.3792719325954903
0.16797468827221498,0.08630645453239641,0.36035308259812315,0.3789565454004096
0.16621802587956197,0.0851563584927025,0.3569493130032899,0.3786439042575682
0.16448295056000894,0.08402131035514701,0.35358517533070577,0.37833404094837886
0.16276914492252442,0.08290107382698517,0.3502601266579972,0.37802698236261845
0.1610762981032093,0.08179541788480119,0.34697363403829007,0.37772275082037665
0.15940410556242626,0.08070411660311558,0.3437251742193155,0.377421364375653
0.15775226889005325,0.07962694898988879,0.34051423337332865,0.3771228371026105
0.1561204956185077,0.07856369882862377,0.3373403068373668,0.3768271793654262
0.15450849904320005,0.07751415452678459,0.3342028988633978,0.3765343980726382
0.15291599805009515,0.07647810897025156,0.3311015223779459,0.3762444969168345
0.15134271695007126,0.07545535938355855,0.3280356987507673,0.3759574766004897
0.14978838531977945,0.07444570719565782,0.3250049575721947,0.3756733350487039
0.14825273784872411,0.07344895791097908,0.3220088364387792,0.37539206760956545
0.14673551419229075,0.07246492098554877,0.3190468807468687,0.3751136672428166
0.14523645883046624,0.07149340970795573,0.31611864349378016,0.3748381246974647
0.14375532093200297,0.07053424108495546,0.313223685086254,0.3745654286789467
0.1422918542237922,0.0695872357315094,0.31036157315585355,0.3742955660064248
0.1408458168652215,0.06865221776507394,0.3075318823810418,0.3740285217607554
0.13941697132730071,0.06772901470395334,0.3047341943156354,0.3737642794236491
0.13800508427635125,0.06681745736954534,0.30196809722335627,0.37350282100850574
0.13660992646206246,0.06591737979231191,0.29923318591824755,0.3732441271833923
0.13523127260972637,0.06502861912131427,0.2965290616106797,0.37298817738658974
0.13386890131647328,0.06415101553716532,0.29385533175872647,0.37273494993513157
0.13252259495133484,0.06328441216824668,0.2912116099246749,0.37248442212672106
0.1311921395589717,0.06242865501006131,0.28859751563646197,0.3722365703353895
0.12987732476691083,0.06158359284757761,0.28601267425382204,0.3719913701012588
0.12857794369613842,0.06074907718044756,0.2834567168389577,0.3717487962147257
0.1272937928749115,0.06013585451162584,0.28092928003153617,0.3715088227953868
0.12602467215564644,0.059674914718133076,0.27843000592782885,0.3712714233659984
0.12477038463475729,0.059220433814803075,0.2759585419638446,0.37103657092175113
0.1235307365753168,0.05877229209498169,0.2735145408022568,0.3708042379951232
0.12230553733242311,0.05833037305008498,0.27109766022299553,0.37057439671656023
0.12109459928115635,0.05789456325241776,0.26870756301734233,0.3703470188712239
0.11989773774701742,0.05746475224295894,0.2663439168853816,0.37012207595202506
0.11871477093874491,0.05704083242389152,0.26400639433668105,0.3698995392091581
0.11754551988340947,0.05662269895566696,0.2616946725940592,0.36967937969633735
0.11638980836369237,0.05621024965840704,0.2594084335003237,0.3694615683139164
0.1152474628572564,0.055803384917448795,0.2571473634278485,0.3692460758490802
0.1141183124781224,0.05540200759285302,0.25491115319089563,0.3690328730132685
0.11300218891996841,0.0550060229326963,0.25269949796054325,0.3688219304769974
0.11189892640127291,0.0546153384899874,0.25051209718214484,0.36861321890222565
0.11080836161222524,0.05422986404304131,0.2483486544951985,0.36840670897241024
0.10973033366333138,0.05384951151916406,0.24620887765553778,0.3682023714203845
0.10866468403564569,0.05347419492149841,0.24409247845975623,0.3680001770541892
0.10761125653256343,0.05310383025889387,0.2419991726717714,0.36780009678097203
0.106569897233108,0.05273833547866924,0.23992867995144862,0.36760210162907314
0.10554045444665655,0.05237763040213539,0.23788072378520075,0.3674061627684023
0.1045227786690418,0.05202163666276488,0.23585503141849928,0.36721225152921144
0.10351672253997862,0.05167027764688403,0.2338513337902015,0.36702033941935364
0.10252214080175936,0.05132347843678381,0.23186936546864723,0.3668303981401245
0.10153889025917034,0.0509811657561377,0.2299088645894427,0.3666423996007685
0.10056682974057818,0.050643267917631074,0.2279695727948743,0.3664563159317312
0.09960582006014268,0.050309714772699965,0.22605123517489178,0.36627211949673466
0.09865572398110933,0.0499804376632908,0.22415360020959385,0.3660897829037464
0.09771640618014277,0.049655369375551706,0.2222764197131737,0.36590927901491266
0.09678773321265671,0.04933444409536886,0.22041944877925834,0.3657305809555177
0.09586957347910413,0.04901759736567157,0.2185824457275971,0.3655536621220298
0.09496179719219117,0.04870476604542512,0.21676517205205137,0.3653784961892931
0.09406427634497855,0.04839588827024088,0.2149673923698321,0.3652050571169171
0.09317688467983554,0.04809090341452932,0.21318887437194833,0.365033319154917
0.09229949765821743,0.04778975205513464,0.21142938877481643,0.3648632568486495
0.09143199243123146,0.04749237593638078,0.20968870927299532,0.36469484504309413
0.09057424781096629,0.04724825260814258,0.20796661249300197,0.3645280588865183
0.0897261442425526,0.047098802312205645,0.20626287794817544,0.3643628738335687
0.08888756377692841,0.046950511290077546,0.20457728799454933,0.36419926564782956
0.0880583900442879,0.0468033763120288,0.2029096277877025,0.3640372104038748
0.08723850822818169,0.04665739371821365,0.2012596852405446,0.3638766844888619
0.08642780504025033,0.04651255944609012,0.19962725098202294,0.3637176646036824
0.08562616869556533,0.04636886905647919,0.19801211831669852,0.3635601277637167
0.08483348888855863,0.0462263177583323,0.19641408318518283,0.3634040512992077
0.08404965676951759,0.046084900432262654,0.19483294412539243,0.363249412855284
0.08327456492162572,0.04594461165289776,0.19326850223459835,0.36309619039166385
0.08250810733853065,0.04580544571011269,0.1917205611322561,0.36294436218205317
0.0817501794024229,0.045667396629189616,0.19018892692357037,0.3627939068132685
0.08100067786260362,0.04553045818995727,0.1886734081637902,0.36264480318410064
0.08025950081452887,0.04539462394495708,0.18717381582320636,0.36249703050393967
0.0795265476793125,0.045259887236682395,0.18568996325282106,0.3623505682911843
0.07880171918367157,0.04512624121393327,0.18422166615067836,0.362205396371445
0.07808491734030154,0.04499367884732586,0.18276874252883935,0.36206149487556405
0.07737604542866566,0.04486219294400151,0.18133101268096863,0.3619188442374637
0.07667500797618554,0.04473177616156765,0.17990829915052475,0.361777425191842
0.07598171073981985,0.044602421021310734,0.17850042669953758,0.36163721877172195
0.07529606068801992,0.04447411992071304,0.17710722227794662,0.3614982063058747
0.07461796598304676,0.044346865145306724,0.17572851499349618,0.36136036941612404
0.07394733596364406,0.04422064887989696,0.17436413608216017,0.36122369001454546
0.07328408112804957,0.044095463219183784,0.17301391887909423,0.3610881503005685
0.07262811311733997,0.043971300177813255,0.17167769879008166,0.36095373275799514
0.07197934469909589,0.04384815169987877,0.1703553132634874,0.3608204201519385
0.07133768975137811,0.04372600966790774,0.16904660176267927,0.36068819552569764
0.07070306324700704,0.04360486591135082,0.16775140573892044,0.3605570421975707
0.07007538123813373,0.043484712214601706,0.16646956860471063,0.3604269437576164
0.06945456084109741,0.043365540324565965,0.16520093570758387,0.36029788406436924
0.06884052022155929,0.04324734195780833,0.1639453543043159,0.36016984724151757
0.06823317857990446,0.04313010880728885,0.16270267353556989,0.3600428176745514
0.06763245613690466,0.043013832548714936,0.16147274440094406,0.3599167800073785
0.06703827411963731,0.04289850484652524,0.16025541973442015,0.35979171913892616
0.06645055474764833,0.04278411735952414,0.15905055418020142,0.35966762021972176
