jointMR1,jointMR2,jointMR3,force
6.072961044630658,5.5575696360068605,7.378859258474643,6.150612083702547
5.740377499189849,5.249112421531376,6.964967177833508,5.808385178919356
5.425442684802246,4.957296776925623,6.573520607060291,5.4846360979781705
5.127229752510752,4.681233407181492,6.203317587605922,5.178377504612463
4.8448603489461215,4.420080374428914,5.85322022225872,4.8886746319379375
4.577502082338405,4.173040579379154,5.522151267023637,4.614642487024303
4.324366120865064,3.939359376640239,5.209090904185784,4.3554432040448265
4.0847049164260145,3.7183223167903265,4.918055900470461,4.110283538108393
3.857810047296527,3.5092530084726588,4.643602045355848,3.8784124922981396
3.6430101734508815,3.3115110941337957,4.383782895480287,3.659119070838032
3.439669098673715,3.1244903333657805,4.141671498323595,3.4517301516848926
3.2471839338831754,2.947616788133685,3.9403515648568197,3.2556084721994702
3.064983356381092,2.7803471044739787,3.748282891851071,3.0701507218874267
2.892525960021305,2.6296759702966512,3.5650483013400107,2.8947857365203555
2.729298691548788,2.503497945457124,3.3934437185507607,2.7289727882493486
2.5748153686100834,2.3831117705782625,3.273735346813061,2.572199966609827
2.428615275170483,2.2682558916068167,3.1580183008357468,2.4239826455874716
2.2902618302959987,2.158680493769962,3.0461612831346,2.286427140629439
2.1623401957652457,2.054146975918729,2.9380372946774544,2.156362637234213
2.087955500640732,1.9544274483881028,2.833523494346765,2.0332929106786706
2.0160364629327763,1.8593042533220479,2.7325010630010427,1.9168487990530665
1.9465021606892765,1.7685695064587161,2.6348550719842425,1.8066804930620848
1.8792743183772649,1.6820246594160597,2.5404743559371346,1.7328565826517375
1.814277220395311,1.5994800815609698,2.4492513897695334,1.6736654094935284
1.7514376274161159,1.520754660586087,2.3610821696569126,1.6164364326249239
1.6906846954663812,1.4456754209575728,2.2758660979294127,1.5611052309038564
1.6319498976540974,1.3740771594345829,2.2151461551969676,1.507609490404432
1.5751669484563657,1.3058020968968929,2.1697001644765415,1.455888935544139
1.5202717304837405,1.254949504085414,2.1253321823718547,1.4058852624649472
1.4672022236398463,1.214301334854999,2.082012389581164,1.357542074594299
1.415898436597703,1.174992510205613,2.0397119159585824,1.3108048203144333
1.3663023405167778,1.1369790540116875,1.9984028064877477,1.2656207326708409
1.318357804927311,1.1002184292992567,1.9580579885993994,1.2219387710529508
1.2720105357108364,1.0646694912266368,1.9186512407755196,1.179709564782334
1.2272080151082183,1.0302924416013188,1.8801571623852855,1.138885358545854
1.1838994436887373,0.9970487848827911,1.842551144700561,1.0994199596132632
1.1420356842159718,0.9649012856226653,1.8058093430410127,1.066043129550815
1.1015692073483374,0.9338139272950883,1.7699086500011838,1.0426932896368992
1.062454039114178,0.9037518724719547,1.7348266697139954,1.020124147995685
1.024645710103291,0.8746814242989249,1.7005416931071948,0.9983032131920454
0.9881012063186769,0.8465699892297143,1.6670326741112038,0.9771995283818821
0.952778921634154,0.8193860409774905,1.635635250534744,0.9567835941201829
0.9186386118052585,0.7930990856435913,1.6085942886445084,0.9370272951656092
0.885641349982593,0.7676796279850575,1.5821578566764491,0.9179038310719989
0.8672303548081101,0.743099138783754,1.5563082042870389,0.8993876503682203
0.8497216696003906,0.7193300232810727,1.531028219450938,0.8814543881382967
0.8326220254084017,0.6963455906433718,1.5063014026889023,0.8640808068236314
0.8159203302581022,0.6741200244244792,1.4821118423960822,0.8472447400785672
0.7996058367377961,0.6526283539926594,1.4584441912225241,0.8309250395194093
0.7836681299774909,0.6318464268905346,1.435283643459834,0.8151015242154748
0.768097116090005,0.6117508820974753,1.412615913389985,0.7997549327787025
0.7528830110546239,0.5923191241649683,1.3904272145542136,0.7848668779159337
0.7380163300249548,0.5735292981964457,1.3687042399017977,0.7704198033151175
0.7234878770434496,0.5553602656439844,1.3474341427802985,0.7563969427434949
0.7092887351458255,0.5377915808951927,1.32660451873054,0.742782281242217
0.6954102568393621,0.5259010868308458,1.3062033880512285,0.7295605183079612
0.6834181946181804,0.5151243016413065,1.2862191790996615,0.716717032957849
0.6721210890185502,0.504596369836621,1.2666407122964638,0.7042378505794437
0.661069990541068,0.49431034856544265,1.2474571848036977,0.692109611472762
0.6502579741378042,0.4842595363022467,1.2286581558470546,0.6803195409961422
0.6396783537057453,0.474437462836658,1.2102335326541263,0.6688554212324377
0.6293246727199981,0.46483787972446133,1.1921735569819871,0.6577055640964009
0.619190695259894,0.455454751177816,1.1744687922085038,0.6468587858082923
0.6092703974109556,0.44628224537330974,1.1571101109629163,0.6363043826626691
0.599557959026443,0.4373147261575664,1.1400886832723112,0.6260321080250622
0.5900477558329109,0.428546745131134,1.1233959652016392,0.6160321504927712
0.5807343518648926,0.41997303409233233,1.1070236879659157,0.606295113159363
0.571612492214486,0.4115884978236666,1.0909638474941805,0.5968119939256278
0.5626770960822369,0.4033882072042728,1.0752086944256938,0.5875741668027492
0.5539232501163183,0.3953673926326824,1.0597507245197084,0.5785733641563037
0.5453462020275697,0.38752143774498404,1.044582669460971,0.5698016598423766
0.5369413544685149,0.3798458734141922,1.0296974880438992,0.5612514531896624
0.5287042591649894,0.37257872271630804,1.0150883577191236,0.552915453783812
0.5206306112895163,0.36549585804610824,1.0007486664868075,0.5447866670126024
0.512716244066038,0.35856196099884324,0.9866720051218326,0.5368583803326535
0.5049571235960748,0.35177336716037116,0.9728521597166071,0.529124150220492
0.49734934389680907,0.3451265250405579,0.9592831045278614,0.521577789772693
0.4898891221420165,0.3386179916986562,0.9459589951144107,0.5142133569216932
0.48257279409715925,0.3322444285672907,0.9328741617534215,0.5070251432355957
0.47539680974033804,0.3260025974652389,0.9200231031232753,0.500007663271961
0.46835772906116296,0.319889356789731,0.9074004802416371,0.49315564445714
0.46145221802994973,0.31390165787943963,0.8950011106478414,0.4864640174641845
0.45467704472998105,0.30803654153980015,0.8828199628191771,0.4799279070637899
0.4480290756458886,0.3022911347227161,0.8708521508111172,0.47354262342405007
0.44150527210151524,0.29666264735312015,0.8590929291119682,0.46730365383607003
0.43510268684090664,0.29114836929523497,0.8475376877028317,0.46120665484367973
0.42881846074635854,0.28574566745174973,0.8361819473141687,0.4552474447566246
0.4226498196877103,0.28045198298946866,0.8250213548706399,0.44942199652768533
0.41659407149732886,0.27526482868531926,0.8140516791162516,0.44372643097519243
0.41064860306546913,0.2701817863869112,0.8032688064121927,0.43815701033337057
0.40481087755092715,0.2652005045821411,0.7926687367000724,0.432710132113859
0.39907843170212554,0.26031869607260844,0.7822475796235916,0.4273823232626171
0.3934488732839789,0.2555341357458724,0.7720015508019802,0.42217023459725206
0.38791987860609156,0.25084465844184384,0.7619269682488226,0.41707063551057066
0.38248919014803207,0.24624815690882124,0.7520202489301759,0.4120804089269085
0.37715461427761254,0.24174257984492958,0.7422779054561408,0.40719654649847165
0.3719140190582792,0.23732593002091257,0.7326965429003065,0.4024161440296014
0.36676533214188706,0.2329962624804533,0.7232728557417318,0.39773639711748626
0.3617065387432952,0.22875168281437025,0.7140036249243484,0.39315459699844935
0.3567356796933707,0.22459034550523344,0.7048857150289061,0.38866812658949523
0.35185084956713886,0.22051045233911098,0.6959160715527792,0.384274456715335
0.3470501948839566,0.21651025088132297,0.6870917182931622,0.3799711425116143
0.34233191237672267,0.21258803301323298,0.6784097548293742,0.37575581999554664
0.33769424732726316,0.20918787420256296,0.6698673541001765,0.3716262027956078
0.33313549196515957,0.20594706951127428,0.6614617600721833,0.367580079032377
0.3286539839273989,0.20276455350584832,0.6531902854956169,0.3636153083430173
0.3242481047763412,0.1996390463627894,0.6450503097438147,0.35972981904227797
0.3199162785736065,0.19656930393373861,0.6370392767330586,0.35592160541325796
0.3156569705075861,0.19355411651809068,0.6291546929194343,0.3521887251215263
0.3114686855723812,0.19059230768392843,0.6213941253695787,0.3485292967465194
0.30734996729606673,0.18768273313523542,0.6137551999022997,0.34494149742444513
0.30329939651626703,0.18482427962343895,0.6062355992981912,0.3414235605972223
0.29931559020111764,0.18201586390141733,0.5988330615744797,0.3379737738622615
0.295397200313768,0.17925643171818867,0.5915453783224651,0.3345904769181599
0.2915429127186596,0.17654495685257499,0.584370393105023,0.33127205960163414
0.2877514461278898,0.17388044018420934,0.5773059999117531,0.3280169600112495
0.2840215510860411,0.17126190880032488,0.5703501416694519,0.3248236627137402
0.28035200899192814,0.16868841513683352,0.5635008088056928,0.32169069702891384
0.27674163115577705,0.1661590361522634,0.5567560378633898,0.31861663538935286
0.27318925789041637,0.1636728725331908,0.5501139101643078,0.3156000917713059
0.2696937576351197,0.16122904792985682,0.5435725505195732,0.31263972019335007
0.2662540261107953,0.1588267082207187,0.5371301259853192,0.3097342132795786
0.2628689855052759,0.15646502080473884,0.5307848446616783,0.3068823008842278
0.2595375836875121,0.15414317392026522,0.5245349545334086,0.30408274877482067
0.25625879344952535,0.15186037598940827,0.5183787423505204,0.30133435737104164
0.2530316117750221,0.1496158549868647,0.5123145325473251,0.2986359605367078
0.24985505913362036,0.14740885783218466,0.5063406861984092,0.29598642442232537
0.24672817879967968,0.1452386498045225,0.5004556000100873,0.29338464635585193
0.24365003619477194,0.14310451397895052,0.49465770534595666,0.29082955377940156
0.24061971825286765,0.14100575068345805,0.4889454672852278,0.28832010322974344
0.23763633280735263,0.1389416769757913,0.48331738371256616,0.28585527936055194
0.23469900799902665,0.13691162613933044,0.4777719844382282,0.28343409400447
0.2318068917042705,0.13491494719723052,0.4723078303473278,0.28105558527313834
0.228959150982602,0.13295100444408914,0.46692351257711895,0.27871881669344234
0.22615497154287473,0.13101917699443333,0.46161765172122293,0.27642287637831037
0.22339355722740215,0.12911885834734826,0.45638889705977714,0.2741668762304784
0.22067412951332183,0.12724945596660153,0.45123592581452177,0.2719499511777203
0.21799592703054096,0.12541039087564027,0.4461574424278816,0.2697712584381093
0.21535820509563297,0.12360109726686935,0.4411521778651408,0.2676299768139553
0.2127602352610794,0.1218210221246403,0.4362188889388441,0.2655253060131187
0.2102013048792777,0.1200696248614066,0.4313563576545947,0.2634564659964772
0.2076807166807585,0.11834637696652461,0.4265633905774493,0.26142269635036974
0.20519778836607863,0.11665076166719895,0.42183881821815095,0.25942325568291036
0.2027518522108784,0.11498227360109536,0.41718149443846375,0.2574574210431084
0.20034225468361228,0.11334041850016169,0.41259029587490503,0.255524487361792
0.1979683560754821,0.11172471288521851,0.4080641213802074,0.25362376691337307
0.19562953014212117,0.11013468377089874,0.40360189148185377,0.2517545887975431
0.19332516375659559,0.1085698683805334,0.3992025478570742,0.24991629844003269
0.19105465657330734,0.10702981387059701,0.3948650528237019,0.2481082571116056
0.18881742070239974,0.10551407706434346,0.3905883888463191,0.24632984146450299
0.18661288039428237,0.10402222419427776,0.38637155805714496,0.24458044308558718
0.1844404717339077,0.10255383065312373,0.38221358179113785,0.24285946806547182
0.18229964234444693,0.10110848075296236,0.3781135001348035,0.24116633658295905
0.18018985110002578,0.09968576749222902,0.3740703714882292,0.23950048250413594
0.17811056784719526,0.09828529233027034,0.3700832721398726,0.23786135299551392
0.17606127313482517,0.09690666496917438,0.36615129585365924,0.2362484081506223
0.17404145795212028,0.09554950314259891,0.36227355346795953,0.23466112062949793
0.17205062347447125,0.09421343241133501,0.3584491725060308,0.23309897531053417
0.1700882808168637,0.0928980859653527,0.3546772967975276,0.23156146895418353
0.16815395079457948,0.09160310443208725,0.35095708611070076,0.2300481098780254
0.16624716369093534,0.09032813569073306,0.34728771579491613,0.2285584176427389
0.16436745903181305,0.08907283469232319,0.3436683764331432,0.22709192274853773
0.16251438536674584,0.08783686328538032,0.34009827350407407,0.22564816634164617
0.16068750005633456,0.0866198900469346,0.3365766270535484,0.22422669993041505
0.1588863690657754,0.08542159011871153,0.3331026713749696,0.22282708511069405
0.15711056676429086,0.08424164504830178,0.3296756546984152,0.22144889330009412
0.1553596757302615,0.08307974263513118,0.3262948388881488,0.22009170548079085
0.15363328656186642,0.08193557678105823,0.32295949914825806,0.21875511195053535
0.15193099769304574,0.08080884734543164,0.3196689237361503,0.2174387120815541
0.15025241521460606,0.07969926000444849,0.3164224136836469,0.2161421140870332
0.14859715270029733,0.07860652611465957,0.31321928252543363,0.21486493479489674
0.14696483103769578,0.07753036258047385,0.3100588560346236,0.2136067994286013
0.14535507826373295,0.07647049172552162,0.30694047196520713,0.21236734139468136
0.14376752940471849,0.0754266411677395,0.30386347980116635,0.2111462020767911
0.14220182632070866,0.07439854369804755,0.30082724051204246,0.2099430306360013
0.1406576175540795,0.07338593716249309,0.2978311263147524,0.20875748381711842
0.13913455818216694,0.07238856434774016,0.294874520441456,0.2075892257608033
0.13763230967384366,0.07140617286979051,0.29195681691328734,0.20643792782127862
0.13615053974990515,0.0704385150658236,0.28907742031976214,0.20530326838942164
0.13468892224714374,0.06948534788904975,0.28623574560369236,0.20418493272104596
0.1332471369859928,0.06854643280647355,0.2834312178514329,0.20308261277018871
0.13182486964162854,0.0676215356994696,0.2806632720883011,0.20199600702722292
0.13042181161841981,0.06671042676707478,0.2779313530790073,0.20092482036162546
0.12903765992762167,0.06581288043190708,0.27523491513294895,0.19986876386923633
0.12767211706821135,0.06492867524862289,0.2725734219142204,0.1988275547238528
0.12632489091076876,0.0640575938148289,0.26994634625619773,0.19780091603300812
0.12499569458430848,0.06319942268436701,0.2673531699805598,0.19678857669779107
0.12368424636597183,0.062353952282895586,0.2647933837206198,0.19579027127656726
0.1223902695734922,0.061520976825690854,0.26226648674883557,0.19480573985247163
0.12111349246034922,0.060700294237597374,0.2597719868083814,0.19383472790454298
0.119853648113531,0.05989170607505784,0.2573093999486564,0.19287698618237942
0.11861047435382527,0.059095017450155496,0.2548782503646252,0.1919322705841991
0.11738371363856473,0.05831003695660514,0.25247807023987323,0.19100034203819088
0.11617311296675323,0.057536576597630784,0.2501083995932747,0.1900809663870506
0.11497842378650266,0.056774451715670526,0.24776878612916842,0.18917391427559607
0.1137994019047121,0.05602348092385123,0.24545878509094687,0.18827896104136335
0.11263580739892454,0.0552834860391781,0.24317795911795748,0.18739588660808862
0.11148740453129707,0.05455429201738565,0.24092587810562693,0.18652447538198152
0.11035396166462377,0.05383572688939914,0.23870211906872196,0.18566451615070514
0.10923525118035243,0.05312762169935714,0.23650626600765268,0.18481580198497366
0.10813104939853752,0.05242981044414735,0.2343379097777445,0.18397813014268935
0.1070411364996749,0.05174213001441069,0.2321966479613915,0.1831513019755381
0.1059652964483647,0.051064420136968214,0.2300820847430154,0.18233512283796868
0.10490331691875107,0.050396523318629816,0.2279938307867555,0.1815294019984819
0.10385498922168887,0.049738284791342124,0.2259315031168172,0.180733952553161
0.10282010823358956,0.04908955245863739,0.2238947250004053,0.1799485913413747
0.10179847232689918,0.04845017684334413,0.22188312583317882,0.1791731388635873
0.1007898833021646,0.04782001103652328,0.21989634102715683,0.17840741920121392
0.09979414632164302,0.04719891064759424,0.2179340119010138,0.177651259938461
0.09881106984441412,0.04658673375561606,0.21599578557270327,0.17690449208609163
0.09784046556295328,0.045983340861691646,0.21408131485434723,0.1761669500070615
0.09688214834112652,0.04538859484246166,0.21219025814933556,0.1754384713439707
0.09593593615356977,0.044802360904658445,0.21032227935157777,0.1747188969482783
0.09500165002641459,0.04422450654068977,0.20847704774685494,0.17400807081122993
0.09407911397932539,0.04365490148522333,0.20665423791621618,0.17330583999644972
0.09316815496881298,0.04309341767274438,0.2048535296413685,0.172612054574149
0.09226860283279167,0.042539929196060144,0.20307460781201514,0.17192656755690683
0.09138029023634658,0.04199431226572392,0.20131716233508845,0.17124923483697788
0.09050305261868058,0.041456445170354905,0.19958088804583274,0.17057991512508583
0.08963672814120954,0.040926208237829054,0.1978654846206942,0.16991846989066123
0.08878115763677746,0.04040348379731701,0.19617065649197118,0.16926476330348325
0.08793618455996166,0.0398881561421473,0.19449611276418177,0.16861866217668864
0.0871016549384411,0.03938011149347248,0.1928415671321122,0.16798003591110983
0.08627741732540098,0.038879237964716595,0.19120673780049846,0.16734875644090577
0.08546332275294671,0.03838542552678409,0.18959134740530992,0.16672469818045224
0.08465922468650311,0.03789856597400981,0.18799512293659082,0.16610773797245731
0.08386497898017325,0.03741855289083118,0.18641779566282746,0.16549775503726938
0.08308044383303384,0.03694528161916372,0.18485910105680303,0.16489463092334614
0.08230547974634378,0.03647864922646166,0.18331877872290514,0.16429824945885488
0.08153994948164339,0.03601855447444691,0.18179657232585567,0.16370849670437373
0.08078371801972281,0.03556489778848865,0.18029222952082558,0.16312526090666596
0.08003665252043804,0.035117581227617434,0.17880550188490574,0.162548432453499
0.07929862228335458,0.034676508455158406,0.1773361448499038,0.16197790382948174
0.07856949870919844,0.03424158470996719,0.17588391763643396,0.1614135695728935
0.07784915526209518,0.03381271677825465,0.17444858318927214,0.16085532623348117
0.07713746743257835,0.033389812965985255,0.1730299081139497,0.16030307233119703
0.07643431270134884,0.032972783071835265,0.17162766261455498,0.15975670831585673
0.07573957050376767,0.03256153836069742,0.17024162043271773,0.15921613652769237
0.0750531221950646,0.0321559915377182,0.16887155878775006,0.1586812611587782
0.0743748510162463,0.03175605672285581,0.1675172583179172,0.15815198821530907
0.07370464206068722,0.03136164942594555,0.16617850302281667,0.15762822548070898
0.0730423822413876,0.03097268652226115,0.1648550802068358,0.157109882479549
0.07238796025888353,0.030589086228559936,0.16354678042367032,0.1565968704422564
0.07174126656979318,0.030210768079600492,0.16225339742187828,0.15608910227059455
0.07110219335598564,0.02983765290512247,0.16097472809144597,0.15558649250389375
0.07047063449435759,0.029469662807276475,0.15971057241134634,0.15508895728601813
0.06984648552720374,0.02910672113849483,0.158460733398067,0.1545964143330471
0.06922964363316875,0.028748752479792694,0.15722501705508907,0.15410878290165667
0.06862000759876591,0.02839568261948905,0.15600323232329472,0.15362598375818265
0.06801747779045145,0.02804743853233943,0.1547951910322849,0.1531479391483504
0.06742195612724097,0.027703948359069364,0.1536007078525896,0.15267457276765461
0.06683334605385649,0.027447780833780966,0.15241960024874723,0.15220580973237402
0.06625155251439216,0.027334350489770176,0.15125168843324288,0.15174157655120557
0.06567648192648717,0.02722104002313852,0.15009679532127818,0.15128180109750522
0.06510804215599489,0.02710787022237826,0.1489547464863643,0.15082641258211846
0.06454614249213728,0.02699486103152804,0.14782537011671537,0.1503753415267889
0.06399069362313381,0.02688203157829616,0.14670849697243016,0.14992851973813154
