jointFR1,jointFR2,jointFR3,force
5.945179614460184,5.636911635034138,7.646551651903605,6.150612083702547
5.6206781893679,5.331739989648108,7.2127081213089745,5.823436582524991
5.3133835396497355,5.042710350645569,6.802460588585644,5.513799446217957
5.022392226676487,4.768975889890818,6.4145442721856085,5.2207655581471775
4.746848078665836,4.509734071332688,6.047761822520458,4.943449550784428
4.48593972100499,4.264224337002381,5.700979734108952,4.681013161128952
4.238898235547567,4.031725913850922,5.373124948471185,4.432662726668906
4.004994942150517,3.8115557351169884,5.080043021877479,4.197646814415051
3.7835392960687044,3.6030664702451882,4.83042408910409,3.975253975935629
3.573876895157836,3.405644657687208,4.592375105425486,3.764810621697139
3.375387591152199,3.218708935214,4.3653710302741136,3.5656790083714354
3.1874836995832068,3.0417083626477313,4.14891044668899,3.3772553331064237
3.009608303188263,2.8741208321879634,3.942514502179467,3.2056173988367376
2.8412336439284447,2.715451561758522,3.7457258970030214,3.045725280413305
2.6818595989883667,2.565231667040233,3.5581079177357573,2.894491270373335
2.5310122363731087,2.4230168080810572,3.3792435141092696,2.751451994320604
2.3882424459460427,2.288385906589672,3.2087344171780794,2.6161687653097276
2.253124641968415,2.160939930221761,3.0462002969684896,2.4882262707583207
2.125255533407137,2.0403007403610856,2.891277957842402,2.367231329156265
2.0042529584722493,1.9261100000799203,2.756896100379426,2.252811712863001
1.889754780030185,1.8180281391366233,2.6851927746642312,2.1446150334807443
1.7814178387141215,1.7157333730320887,2.615246849536609,2.0423076864782277
1.678916960718653,1.6286940678714437,2.5470156545863567,1.945573851916228
1.5819440174233033,1.5510794154424483,2.489836904916331,1.8541145482934396
1.503632482825263,1.4770374264253774,2.4439459004822988,1.7676467366897184
1.4664620361227725,1.406406340269125,2.3989285391678643,1.6859024725336995
1.4301976706555701,1.3390316689258817,2.3547661782538283,1.6086281024638232
1.394817422060582,1.274765870891554,2.3114406530932983,1.5355835038863046
1.3602998604461725,1.21346803983659,2.2689342620394637,1.4665413649609267
1.3266240771567008,1.155003607174487,2.2272297519327253,1.4012865028660917
1.2937696718785643,1.0992440579444465,2.1863103041243166,1.3396152183087604
1.2617167400781988,1.0460666594125314,2.1461595210145252,1.2813346843529927
1.2304458607628084,1.0084264152199243,2.1067614130845644,1.2262623677431805
1.199938084554878,0.9839814159093392,2.0681003864020457,1.1742254809949517
1.170174922071814,0.9601314733475701,2.030511759447736,1.1286624440583146
1.1411383326023272,0.9368621752295976,2.0008142017569854,1.1004258774802516
1.1128107130714118,0.9141594594022546,1.971592125662304,1.0728774587705165
1.0851748872860543,0.8920096052195157,1.9428372621374066,1.0460005288419545
1.0582140954540236,0.8703992251195776,1.914541500991841,1.0197788324839072
1.0319119839683362,0.8493152564175881,1.886696887369075,0.9941965084446229
1.0062525954502173,0.8287449533080831,1.8592956183369451,0.9692380797652572
0.9812203590435863,0.8086758790713842,1.832330039567528,0.9448884443586383
0.9568000809543131,0.7890958984783765,1.8057926421036057,0.9211328658261976
0.9329769352276864,0.7699931703882505,1.7796760592090017,0.8979569645066534
0.9097364547577355,0.7513561405339793,1.7539730633001627,0.8753467087502269
0.8870645225222356,0.7331735344904364,1.7286765629564544,0.8532884064123593
0.864947363037395,0.7154343508202379,1.703779600006739,0.8317686965610768
0.8433715340264257,0.6981278543925096,1.6792753466898793,0.8107745413923257
0.8223239182963322,0.6812435698699633,1.6551571028869125,0.7902932183477549
0.8017917158174509,0.664771275359767,1.6314182934227017,0.770312312429603
0.7817624360004134,0.6487009962238479,1.6080524654349682,0.7508197087074905
0.7622238901653584,0.633022999044389,1.5850532858086677,0.7318035850120643
0.743164184198375,0.6177277857404084,1.5624145386737593,0.713252404810606
0.7245717113902984,0.602806087831433,1.540130122964471,0.6951549102598344
0.7064351454531148,0.5882488608443739,1.5181940500382427,0.6775001154312841
0.6887434337093714,0.5740472788598605,1.496600441352589,0.660277299704766
0.6714857904501202,0.5601927291943647,1.4753435261981818,0.6434760013255492
0.6546516904570324,0.5466768072145592,1.454417639486513,0.6270860111210187
0.6382308626844668,0.5334913112804831,1.4338172195905594,0.6110973663726917
0.6222132840973801,0.5206282378141334,1.413536806236918,0.5955003448395803
0.6079367625392493,0.508079776490257,1.393571038447938,0.5802854589290185
0.5990760675187738,0.49583830554615316,1.3739146525324228,0.5654434500111549
0.5903559836657454,0.4838963872074298,1.3545624801235283,0.5509652828734334
0.581774104358998,0.47224676322671333,1.3355094462625217,0.5368421403114934
0.5733280678434244,0.460882350532416,1.3167505675271216,0.5230654178529915
0.5650155562936703,0.44979623698472515,1.2982809502031698,0.5099241960019997
0.55683429490055,0.4389816772360807,1.2800957884984394,0.500029239853844
0.5487820509795239,0.42843208869345817,1.2621903627974118,0.49034529821925255
0.5408566331006038,0.41814104757986736,1.2445600379559045,0.48086701726952047
0.5330558902390735,0.4081022850925401,1.2272002616344586,0.47158921470128673
0.5253777109464292,0.3983096836553467,1.2101065626694383,0.46250687289448905
0.5178200225409693,0.3887572732630532,1.1932745494808215,0.4536151323855478
0.5103807903174786,0.380900783112255,1.1766999085157024,0.44490928564013865
0.5030580167754717,0.3743430704985648,1.1603784027265476,0.4363847711107324
0.4958497408654783,0.3679028101380201,1.1443058700832878,0.4280371675648231
0.48875403725287014,0.36157772971882934,1.1284782221183514,0.419862188670498
0.4817690155987447,0.35536560712365833,1.1128914425037721,0.411855677826679
0.47489281985739845,0.34926426909388825,1.0975415856595403,0.40401360322601293
0.4681236275899366,0.34327158993708456,1.0824247753923768,0.39633205313900766
0.4614596492935796,0.33738549027605375,1.067537203564154,0.38880723140858253
0.4548991277462448,0.33160393583793074,1.0528751287891935,0.3814354531447637
0.4484403373659902,0.3259249362818086,1.0384348751597088,0.3743562795658567
0.44208158358492394,0.32034654406347335,1.0242128309986727,0.37640107378127907
0.4358212022371954,0.31486685333587544,1.0102054476394193,0.37829050702997347
0.4296575589606935,0.3094839988840185,0.9964092382313063,0.3800336351153797
0.4235890486120926,0.30419615509300396,0.9828207765707846,0.38163901706025305
0.4176140946948958,0.29900153494801446,0.9694366959572442,0.383114741819082
0.4117311488001369,0.29389838906507887,0.9562536880730206,0.3844684535645235
0.4059386900594125,0.2888850047514971,0.9432685018869682,0.3857073756237649
0.4002352246099269,0.2839597050948561,0.9304779425810197,0.38683833313669813
0.3946192850712395,0.27912084807960696,0.9178788704991738,0.3878677745039474
0.38908943003341845,0.2743668257302175,0.9054682001183636,0.3888017916891974
0.3836442435563077,0.2696960632799497,0.893242899040678,0.38964613943682214
0.3782823346796282,0.2651070183643544,0.8811999870064231,0.39040625346257884
0.3730023369436398,0.2605981802386082,0.869336534927523,0.3910872676720647
0.3678029079200992,0.2561680690178529,0.8576496639407769,0.39169403045870976
0.3626827287532573,0.2518152349397324,0.846136544480502,0.3922311201303411
0.3576405037106468,0.24753825764835108,0.8347943953701027,0.39270285951073713
0.3526749597434187,0.24333574549891174,0.823620482932123,0.3931133297601218
0.3477848460559916,0.23920633488231696,0.812612120116349,0.3934663834562149
0.3429689336847874,0.2351486895690475,0.8017666656455438,0.39376565697523813
0.33822601508583183,0.23116150007165753,0.7910815231784019,0.39401458221017693
0.33355490373100355,0.22724348302525316,0.7805541404893293,0.39421639766162275
0.3289544337127251,0.2233933805853437,0.7701820086646609,0.39437415893463723
0.3244234593568911,0.2196099598424796,0.7599626613149424,0.3944907486732887
0.3199608548438381,0.21589201225311366,0.7498936738029047,0.3945688859628532
0.3155655138371632,0.21223835308614353,0.7399726624867824,0.39461113522805236
0.31123634912020665,0.20864782088461414,0.730197283978625,0.3946199146541979
0.30697229224001665,0.20511927694207882,0.720565234417265,0.3945975041566936
0.30277229315862075,0.2016516047931372,0.7110742487556156,0.39454605292297407
0.29863531991143294,0.1982437097176845,0.7017221000619769,0.3944675865496896
0.29456035827263005,0.19489451825842824,0.6925065988350407,0.39436401379673225
0.2905464114273358,0.19160297775123986,0.6834255923322923,0.39423713297853624
0.2865924996504545,0.18836805586793032,0.6744769639115082,0.39408863801202365
0.28269765999200297,0.18518874017104897,0.6656586323850711,0.3939201241395037
0.27886094596878935,0.18206403768032536,0.6569685513868138,0.3937330933438856
0.27508142726229645,0.17899297445038215,0.648404708751124,0.3935289594726259
0.2713581894226263,0.17597459515936525,0.639965125904044,0.39330905308596287
0.26769033357837,0.17300796270814894,0.6316478572661008,0.39307462604416366
0.26407697615226877,0.17009215782978543,0.6234509896666212,0.39282685584771515
0.26051724858253567,0.16722627870888157,0.61537264176928,0.39256684974366984
0.2570102970497119,0.16440944061059676,0.6074109635086435,0.3922956486106236
0.25355528220893353,0.16164077551896577,0.5995641355374741,0.39201423063417074
0.250151378927489,0.1589194317842642,0.5918303686845654,0.391723514784023
0.24679777602754974,0.15624457377914086,0.5842079034228866,0.39142436410340276
0.2434936760339599,0.1536153815632521,0.5766950093478203,0.39111758882074255
0.24023829492697435,0.15103105055614502,0.5692899846652766,0.3908039492931993
0.23703086189983588,0.1484907912181424,0.5619911556894832,0.39048415879097476
0.2338706191210865,0.1459938287389922,0.554796876350242,0.3901588861309605
0.23075682150150953,0.14353940273405302,0.5477055277094636,0.3898287581677773
0.22768873646560217,0.14112676694779452,0.5407155174867768,0.38949436214983035
0.22466564372748069,0.1387551889643998,0.5338252795940372,0.38915624794762094
0.22168683507112272,0.1364239499252637,0.5270332736785412,0.3888149301611461
0.21875161413485347,0.13413234425318893,0.5203379846747709,0.3884708901128643
0.2158592961999853,0.13187967938308692,0.5137379223644964,0.38812457773236986
0.21300920798352185,0.12966527549900037,0.5072316209450609,0.3877764133385624
0.21020068743484013,0.12748846527726537,0.5008176386056851,0.3874267893248228
0.2074330835362669,0.12534859363564405,0.4944945571116257,0.38707607175239034
0.20470575610746625,0.12324501748825728,0.48826098139602947,0.38672460185686575
0.2020180756135588,0.12117710550615785,0.4821155391593297,0.38637269747250524
0.1993694229768935,0.11914423788338752,0.47605688047602723,0.3860206543787137
0.19675918939239623,0.1171458061083675,0.4700836774087145,0.38566874757292413
0.19418677614641985,0.1151812127404756,0.46419462362919295,0.3853172324738059
0.19165159443902333,0.11324987119167024,0.45838843404654295,0.3849663460585553
0.18915306520960837,0.11135120551302363,0.4526638444420079,0.3846163079378103
0.1866906189658444,0.10948465018603254,0.44701961111055843,0.3842673213715392
0.18426369561581368,0.10764964991857989,0.44145451050899953,0.38391957422908685
0.18187174430331052,0.10584565944542196,0.435967338910497,0.3835732398963778
0.17951422324622957,0.10407214333308207,0.43055691206539315,0.38322847813312566
0.17719059957798033,0.10232857578903615,0.4252220648681859,0.3828854358827398
0.17490034919186562,0.10061444047507612,0.4199616510305566,0.3825442480374821
0.17264295658836382,0.09892923032474404,0.41477454276032133,0.3822050381612824
0.17041791472525614,0.09727244736473012,0.4096596304461917,0.38186791917250273
0.16822472487054071,0.09564360254013499,0.40461582234823634,0.38153299398880813
0.16606289645807767,0.09404221554349551,0.3996420442939239,0.38120035613618986
0.16393194694590993,0.09255955694356527,0.3947372393796469,0.38087009032408614
0.1618314016772057,0.09124442524008664,0.3899003676776138,0.38054227298842
0.15976079374377045,0.08994927018141757,0.3851304059480112,0.380216972804308
0.15771966385207647,0.0886737717648744,0.3804263473563301,0.3798942511700609
0.15570756019176024,0.08741761536743958,0.37578720119575815,0.3795741626640514
0.15372403830653777,0.0861804916506041,0.37121199261454096,0.37925675547590676
0.15176866096749056,0.08496209646699887,0.3666997623482169,0.37894207181342277
0.14984099804867454,0.08376213076878053,0.3622495664566312,0.37863014828652053
0.14794062640500635,0.0825803005177333,0.3578604760656403,0.37832101626948755
0.14606712975238173,0.081416316597054,0.3535315771134133,0.37801470224268774
0.14422009854998244,0.08026989472478524,0.34926197010124604,0.3777112281148548
0.142399129884728,0.07914075536886395,0.3450507698488021,0.3774106115270317
0.14060382735783095,0.0780286236637519,0.340897105253694,0.3771128661391474
0.13883380097341366,0.07693322932861785,0.3368001190553256,0.37681800190018677
0.13708866702914688,0.07585430658703834,0.3327589676029119,0.3765260253028456
0.1353680480088706,0.07479159408818753,0.32877282062760194,0.3762369396235171
0.13367157247715816,0.0737448348294874,0.3248408610186231,0.37595074514841653
0.1319988749757865,0.07271377608068713,0.3209622846033724,0.37566743938660097
0.13034959592207498,0.07169816930934475,0.3171362999313827,0.37538701727060086
0.12872338150905713,0.07069777010768269,0.31336212806208974,0.37510947134534534
0.12711988360744939,0.0697123381207902,0.30963900235632713,0.3748347919460261
0.12553875966938266,0.06874163697614583,0.30596616827148426,0.37456296736550343
0.12397967263386253,0.06778543421443389,0.30234288316025326,0.3742939840118361
0.12244229083392486,0.06684350122162935,0.2987684160729034,0.3740278265564735
0.12092628790545429,0.06591561316232702,0.2952420475630133,0.3737644780736341
0.11943134269763411,0.06500154891428961,0.2917630694965987,0.37350392017134637
0.11795713918499584,0.0641010910041912,0.2883307848645742,0.3732461331146272
0.11650336638103823,0.06321402554453287,0.2849445075984838,0.3729910959412187
0.11506971825338594,0.06234014217170786,0.2816035623894422,0.37273878657031256
0.11365589364045836,0.061479233985193005,0.2783072845102279,0.37248918190463853
0.11226159616962009,0.06063109748784584,0.2750550196404695,0.37224225792629506
0.11088653417678485,0.05979553252728481,0.27184612369486616,0.3719979897866692
0.1095304206274455,0.05897234223833231,0.2686799626543923,0.3717563518907733
0.10819297303910314,0.05816133298649934,0.2655559124004232,0.37151731797631704
0.1068739134050688,0.057362314312493556,0.2624733585517369,0.37128086118780534
0.10557296811961212,0.05657509887772766,0.2594316963043335,0.3710469541459456
0.10428986790443145,0.05579950241081216,0.25643033027402384,0.37081556901262136
0.10302434773642077,0.055035343655012,0.2534686743417347,0.3705866775516966
0.10177614677670901,0.05428244431664936,0.25054615150148263,0.3703602511858708
0.1005450083009479,0.05354062901443296,0.24766219371096687,0.3701362610498198
0.0993306796308252,0.05280972522969868,0.24481624174473615,0.369914678039831
0.0981329120667804,0.05208956325754177,0.242007745049879,0.3696954728601288
0.09695146082190025,0.05137997615882528,0.23923616160419203,0.3694786160660858
0.09578608495697252,0.05068079971304723,0.23650095777678826,0.3692640781044928
0.09463654731667634,0.04999187237205066,0.23380160819109008,0.36905182935106207
0.09350261446688776,0.049313035214560264,0.23113759559017355,0.3688418401453162
0.09238405663308052,0.04864413190153005,0.2285084107044162,0.36863408082302374
0.09128064763980093,0.04798500863228711,0.22591355212140907,0.36842852174631124
0.0901921648511978,0.04733551410145598,0.22335252615809176,0.3682251333316019
0.08911838911258749,0.04669549945664914,0.22082484673506975,0.3680238860754913
0.08805910469303503,0.046064818256909,0.21833003525307593,0.3678247505786988
0.08701409922893286,0.04544332643188809,0.21586762047153774,0.3676276975681899
0.08598316366855868,0.044830882241752246,0.2134371383892113,0.36743269791759503
0.08496609221759442,0.044227346237794396,0.21103813212684686,0.367239722666011
0.08396268228558881,0.043632581223745526,0.20867015181184811,0.36704874303529145
0.08297273443334625,0.04304645221776887,0.20633275446489008,0.36685973044591236
0.081996052321225,0.042468826415126115,0.20402550388846152,0.3666726565314983
0.08103244265832815,0.0418995731515015,0.2017479705572962,0.36648749315209406
0.08008171515257106,0.041338563866973155,0.1994997315106617,0.36630421240625055
0.07914368246160927,0.04078567207061795,0.19728037024646805,0.3661227866420076
0.07821816014461133,0.040240773305739885,0.19508947661716936,0.36594318846683194
0.07730496661486112,0.03970374511570923,0.19292664672742532,0.3657653907565793
0.07640392309317455,0.03917446701040117,0.19079148283348668,0.36558936666354214
0.07551485356211604,0.03865282043322388,0.18868359324428163,0.3654150896236388
0.07463758472100018,0.03813868872872406,0.18660259222416653,0.3652425333627969
0.07377194594166445,0.03763195711075956,0.1845480998973159,0.36507167190258527
0.07291776922499889,0.03713251263122924,0.18251974215372058,0.3649024795651403
0.0720748891582194,0.036640244149349355,0.18051715055676598,0.3647349309774306
0.07124314287287094,0.03615504230146582,0.17853996225236402,0.3645690010749095
0.07042237000354762,0.03567679947139385,0.1765878198796087,0.3644046651045858
0.06961241264731689,0.03520540976127462,0.17466037148293112,0.3642418986275604
0.06881311532383501,0.03474076896293887,0.17275727042572697,0.36408067752105877
0.0680243249361415,0.03428277452976952,0.17087817530542915,0.3639209779799957
0.06724589073212041,0.03383132554905294,0.16902274987000165,0.3637627765181032
0.0664776642666164,0.03338632271481107,0.16719066293583063,0.36360604996865165
0.06571949936419404,0.03294766830110424,0.1653815883069858,0.3634507754847959
0.06497125208252862,0.03251526613579797,0.16359520469583022,0.3632969305395649
0.06423278067641759,0.03208902157478338,0.16183119564495319,0.3631444929255314
0.0635039455624011,0.03166884147664423,0.16008924945040603,0.36299344075417317
0.06278460928398112,0.031254634177762586,0.1583690590862139,0.3628437524549605
0.06207463647742845,0.030846309467853716,0.15667032213014598,0.36269540677417866
0.061373893838167035,0.030443778565924673,0.15499274069071856,0.36254838277351653
0.06068225008772546,0.03004695409664654,0.15333602133541024,0.3624026598284299
0.059999575941245546,0.02965575006713478,0.15169987502007087,0.36225821762630517
0.05932574407553816,0.02927008184412927,0.15008401701949992,0.3621150361644342
0.05866062909767656,0.0288898661315673,0.14848816685917599,0.36197309574781833
0.05800410751411779,0.028515020948541803,0.1469120482481172,0.36183237698681747
0.05735605770034274,0.02814546560763881,0.14535538901285316,0.3616928607946537
0.056716359871005845,0.027781120693646855,0.14381792103248747,0.3615545283847853
0.05608489605058531,0.02742190804263106,0.14229938017483623,0.36141736126816404
0.0554615500445251,0.027067750721366912,0.1407995062336176,0.36128134125038314
0.05484620741086006,0.02671857300712538,0.1393180428666796,0.3611464504287314
0.05423875543231568,0.02637430036780475,0.13810440406926605,0.36101267118915803
0.05363908308887412,0.026034859442401526,0.13756150525283473,0.3608799862031642
0.05304708103079833,0.025700178021815956,0.13702469905932868,0.36074837842462326
0.05246264155210636,0.025370185029984504,0.13649385934413338,0.3606178310865399
0.051885658564487736,0.025044810505334802,0.13596886306082623,0.3604883276977622
0.051316027571654446,0.024723985582556396,0.13544959018387503,0.3603598520396408
0.050753645644118696,0.024407642474682356,0.13493592363323703,0.36023238816265535
0.05019841139439017,0.024095714455475925,0.1344277492008139,0.3601059203830054
0.04965022495258537,0.023788135842116254,0.13392495547872807,0.3599804332791764
0.04910898794244192,0.02348484197817935,0.1334274337893666,0.35985591168848174
0.048574603457730736,0.023185769216907237,0.13293507811714655,0.3597323407035925
