jointMR1,jointMR2,jointMR3,force
6.140817176431694,5.589654660107403,7.556850919157755,6.150612083702547
5.804246176015174,5.279454727399153,7.138134893475818,5.808374831886624
5.485542979257717,4.985983896047218,6.745031392022761,5.484624129449792
5.183769083900995,4.7083484808048786,6.3728423541662,5.178371689854336
4.898035095097903,4.445702378835585,6.020467930952234,4.8886818609884015
4.6274981594654205,4.197244539406292,5.686865862841747,4.61466882592424
4.37135953314072,3.9622165680713537,5.371048469436678,4.355493952465177
4.128862276843759,3.7399004582000592,5.07207979644441,4.110363283574572
3.899289071315054,3.529616443080504,4.789072911669711,3.878525161200104
3.681960146843392,3.330720962192197,4.521187342252247,3.659267976404531
3.4762313209265336,3.142604735580217,4.267626645774051,3.451918039090717
3.2814921384187787,2.9646909405861446,4.0276361082464085,3.2558375609654493
3.0971641088142805,2.7964334854962534,3.8005005623505737,3.070422745724205
2.9226990355941043,2.6522544618481487,3.585542319652708,2.8951019807588247
2.7575774328300566,2.5259118030708736,3.3821192108412657,2.7293341249928162
2.6013070244891443,2.4053636555135363,3.189622728345835,2.5726068877357307
2.453421322120443,2.2903481274523623,3.0176306138130347,2.424435293719434
2.3134782768316065,2.180615091473997,2.9011845108373557,2.2864264162873695
2.1810590016759095,2.0759256573954947,2.828685523188673,2.1563620973307978
2.05576656077327,1.9760516687731307,2.7579424740495124,2.0332925849553054
1.937224821680617,1.8807752219447949,2.688912781499428,1.9168487155543505
1.8250773677089425,1.7898882065979593,2.6215549207141846,1.8066806779064695
1.7208246264561953,1.7031918669002555,2.555828396340404,1.7024570012239342
1.6775097211069736,1.6204963822728247,2.4916937156617918,1.603863596066001
1.635252860682382,1.5416204669276783,2.4291123625309536,1.5106028453561515
1.594028374564494,1.4663909873296808,2.368046772041838,1.422392742886847
1.553811217049489,1.394642596781258,2.3084603059187647,1.381468980952182
1.5145769518725858,1.3262173863638307,2.2503172285989304,1.347075554598889
1.476301737132012,1.2609645515042263,2.1935826839861328,1.3135193672766596
1.438962310600918,1.1987400734670481,2.1423143546054106,1.2807801392369385
1.4025359754164328,1.1394064151052574,2.0986262868047056,1.2488380838976108
1.3670005861354482,1.1038396742192647,2.0559132540423843,1.2176738956400002
1.3323345351470155,1.077200813982611,2.01415132602841,1.1872687379203668
1.298516739431558,1.0512038330669873,1.9733172414555784,1.1576042316871455
1.265526627657411,1.0258332877603624,1.9390443117670397,1.1286624440954434
1.2333441276054846,1.0010741077982512,1.9107581085236103,1.1004258775105564
1.201949653913128,0.9769115871838179,1.8829244845884885,1.0728774587925578
1.1713240961285536,0.9533313752422288,1.8555355643388447,1.0460005288542304
1.1414488070674225,0.9303194679028364,1.8285836235633584,1.0197788324848633
1.1123055914634674,0.9078621992029454,1.8020610861270983,0.9941965084326596
1.0838766949052516,0.885946233007157,1.775960520723975,0.9692380797387414
1.0561447930514145,0.8645585549364012,1.750274637714003,0.9448884443159129
1.0290929811169727,0.8436864645010063,1.7249962860427035,0.9258073939550685
1.0027047636234652,0.8233175674323074,1.7001184502400863,0.909152217086797
0.9769640444059466,0.803439768207425,1.6756342474967347,0.8929460662940366
0.9518551168700344,0.7840412627620734,1.6515369248146086,0.8771734507571358
0.9273626544924147,0.76511053138635,1.6278198562302701,0.8618194977496225
0.9034717015584017,0.7466363317986409,1.6044765401083174,0.8468699261267782
0.8801676641303329,0.7286076923929097,1.581500596502884,0.832311020989492
0.8574363012407573,0.7110139056547806,1.558885764585154,0.8181296094704797
0.8352637163045504,0.6938445217419531,1.5366259001348954,0.8043130375923668
0.813636348744255,0.6770893422246218,1.5147149730941056,0.7908491481494088
0.7925409658231075,0.6607384139817067,1.4931470651809111,0.7777262595668276
0.7748070053771636,0.6447820232488017,1.4719163675619416,0.7649331456938162
0.7635856363285242,0.6292106898138787,1.451017178581456,0.7524590164882663
0.7525420137869557,0.6140151613569096,1.4304439015455575,0.74029349955317
0.741673088381684,0.5991864079296474,1.4101910425598922,0.7284266224864626
0.730975868022474,0.5847156165719423,1.390253208419284,0.7168487960078072
0.7204474166863639,0.5705941860610588,1.3706251045478073,0.7055507978274741
0.7100848532345038,0.5568137217905595,1.3513015329878515,0.6945237572240436
0.6998853502582105,0.5433660307754187,1.3322773904367855,0.6837591402991742
0.689846132953373,0.5335461954063248,1.3135476663298669,0.6732487358791042
0.6799644780223766,0.5241619772430259,1.2951074409680974,0.6629846420339394
0.6702377126027417,0.5149482724018347,1.2769518836897618,0.6529592531870774
0.6606632132217014,0.5059017154480754,1.259076251084433,0.6431652477883804
0.651238404775969,0.4970190177901337,1.241475885248267,0.6335955765258889
0.6419607595359677,0.48829696554288515,1.2241462120794449,0.6242434510520201
0.6328277961738281,0.47973241746314,1.2070827396126675,0.6151023332012733
0.6238370788144737,0.47132230295431765,1.1902810563916302,0.606165924677503
0.6149862161091415,0.46306362013769076,1.1737368298784518,0.5974281571898178
0.6062728603307084,0.4549534339876391,1.15744580489906,0.5888831830170971
0.5976947064902111,0.44698887452846714,1.1414038021235642,0.5805253659820312
0.5892494914739692,0.43916713509043626,1.1256067165806884,0.5723492728164449
0.580934993200743,0.43148547062276377,1.1100505162053524,0.5643496649004897
0.5727490297983711,0.423941196061429,1.094731240418531,0.5565214903590738
0.5646894587993558,0.416531684749721,1.0796449987385404,0.5488598764996476
0.5567541763548797,0.409254366909543,1.0647879694229319,0.5413601225761833
0.5489411164667521,0.40210672816157267,1.0501563981401953,0.53401769286486
0.5412482502368039,0.3950863080924556,1.0357465966705028,0.5268282100376256
0.5336735851332592,0.38819069886728197,1.0215549416347451,0.5197874488204313
0.5262151642736357,0.3814175438856702,1.0075778732511358,0.5128913299235135
0.5188710657237272,0.3747645364798471,0.9938118941186818,0.5061359142316882
0.5116394018122524,0.3682294186531825,0.9802535680268398,0.4995173972431453
0.5045183184607493,0.36180997985769725,0.9668995187906981,0.4930321037457497
0.4975059945283229,0.3555040558091217,0.9537464291110433,0.4866764827203664
0.49060064117085644,0.3493095273381447,0.9407910394586922,0.4804471024611738
0.4838005012143123,0.3432243192765413,0.9280301469824839,0.47434064590339514
0.47710384854176047,0.33724639937692447,0.9154606044403506,0.4683539061493056
0.4705089874937811,0.33137377726491657,0.9030793191528982,0.4624837821837765
0.4640142522819019,0.32560450342258096,0.8908832519789444,0.45672727477101605
0.45761800641473777,0.3199366682020046,0.8788694163124826,0.4510814825245347
0.4513186421365132,0.31436840086796347,0.8670348771005504,0.445543598142727
0.44511457987765535,0.3088978686686479,0.855376749881499,0.4401109048027929
0.4390042677171568,0.3035232759334622,0.8438921998431745,0.43478077270605664
0.4329861808564138,0.29824286319695525,0.8325784409005341,0.42955065576804463
0.4270588211042573,0.2930549063479726,0.8214327347922361,0.4244180884469853
0.42122071637289876,0.28795771580315943,0.8104523901957539,0.41938068270467466
0.41547042018452546,0.2829496357039767,0.7996347618605786,0.4144361250939205
0.40980651118828293,0.2780290431364225,0.7889772497590835,0.40958217396704283
0.40422759268739333,0.273194347372689,0.7784772982546415,0.40481665680014384
0.3987322921761638,0.2684439891340078,0.768132395286591,0.4001374676281087
0.39331926088664715,0.2637764398739699,0.7579400715716618,0.3955425645855127
0.38798717334472294,0.2591902010816336,0.7478978998214825,0.39102996754883185
0.38273472693537414,0.25468380360375786,0.7380034939757978,0.3865977558755567
0.37756064147694124,0.2502558069855273,0.7282545084510397,0.3822440662360029
0.3724636588041406,0.24590479882915559,0.7186486374039005,0.37796709053380506
0.36744254235964147,0.24162939416978121,0.7091836140095702,0.37376507391124936
0.36249607679400014,0.23742823486808803,0.6998572097543043,0.36963631283578435
0.3576230675737566,0.2335316839314236,0.6906672337420032,0.36557915326419665
0.35282234059750367,0.23015808696224638,0.6816115320144871,0.36159198888110766
0.34809274181974337,0.2268368568065341,0.6726879868851621,0.35767325940858746
0.34343313688235233,0.22356713169933473,0.6638945162857801,0.3538214489838274
0.3388424107534799,0.2203480648920716,0.6552290731260013,0.3500350846019461
0.3343194673737097,0.21717882437213565,0.6466896446654804,0.34631273462113754
0.3298632293093197,0.21405859258824494,0.6382742518981972,0.3426530073274871
0.32547263741247806,0.21098656618143408,0.629980948948768,0.33905454955690484
0.3211466504882197,0.2079619557215437,0.6218078224804737,0.33551604537173607
0.31688424496805007,0.2049839854490787,0.6137529911147519,0.3320362147897161
0.3126844145900273,0.20205189302231275,0.6058146048619033,0.32861381256304045
0.3085461700851787,0.19916492926951634,0.5979908445627722,0.3252476270054189
0.30446853887010983,0.19632235794619007,0.5902799213411651,0.3219364788650779
0.30045056474566917,0.1935234554971893,0.5826800760667776,0.31867922024176165
0.29649130760153486,0.19076751082362675,0.5751895788284023,0.3154747335458706
0.2925898431265926,0.18805382505444634,0.5678067284172055,0.31232193049795864
0.2887452625249779,0.18538171132256004,0.5605298518198538,0.3092197511668858
0.28495667223765886,0.18275049454544623,0.5533573037212827,0.30616716304499947
0.281223193669439,0.18015951121010898,0.5462874660169097,0.303163160158788
0.2775439629212622,0.17760810916229997,0.5393187473340859,0.30020676221352127
0.2739181305277048,0.17509564739990835,0.532449582562599,0.2972970137704511
0.2703448611995441,0.17262149587042597,0.5256784323940367,0.29443298345521557
0.2668233335712927,0.17018503527239726,0.5190037828698244,0.29161376319614407
0.2633527399535935,0.16778565686076674,0.5124241449377622,0.2888384674912188
0.2599322860903711,0.16542276225603725,0.5059380540168792,0.28610623270250346
0.25656119092063867,0.16309576325715663,0.4995440695704403,0.2834162163769008
0.25323868634486063,0.16080408165805077,0.4932407746869323,0.28076759659214956
0.24996401699577642,0.15854714906772405,0.48702677566887,0.2781595713270222
0.24673644001358994,0.15632440673384995,0.48090070162926035,0.2755913578547215
0.24355522482543335,0.1541353053697765,0.4748612040955693,0.273062192158532
0.24041965292901593,0.15197930498487244,0.468906956621038,0.2705713283688056
0.23732901768037032,0.14985587471814427,0.4630366544032023,0.26811803822041463
0.2342826240856107,0.14776449267505165,0.4572490139094654,0.26570161052983715
0.23127978859661996,0.14570464576745557,0.45154277250958663,0.2633213506910747
0.22831983891058402,0.14367582955663127,0.4459166881149432,0.26097658018963893
0.22540211377329444,0.14167754809928212,0.4403695388244304,0.2586666361338767
0.22252596278614103,0.13970931379648965,0.43490012257687005,0.25639087080293377
0.2196907462167193,0.1377706472455401,0.4295072568097924,0.2541486512106874
0.2168958348129783,0.13586107709456513,0.4241897781244701,0.25193935868500555
0.21414060962083686,0.1339801398999399,0.4189465419570746,0.24976238846172236
0.21142446180519725,0.1321273799863793,0.41377642225583977,0.24761714929274004
0.20874679247428743,0.1303023493096775,0.4086783111641077,0.24550306306769598
0.20610701250726438,0.12850460732203545,0.4036511187091463,0.2434195644486575
0.20350454238501267,0.12673372083992374,0.39869377249662197,0.24136610051732824
0.20093881202407365,0.12498926391442716,0.393805217410617,0.23934213043427355
0.19840926061364247,0.12327081770402204,0.38898441531908334,0.2373471251096916
0.19591533645557127,0.12157797034973439,0.3842303447846269,0.23538056688527964
0.19345649680731833,0.11991031685263237,0.37954200078051814,0.23344194922676065
0.19103220772778462,0.11826745895360369,0.3749183944118275,0.23153077642665618
0.18864194392597972,0.11664900501537295,0.37035855264158535,0.22964656331690764
0.18628518861246143,0.11505456990671281,0.36586151802186984,0.22778883499096692
0.18396143335349363,0.11348377488880501,0.3614263484297282,0.22595712653498937
0.18167017792786885,0.1119362475037079,0.35705211680783644,0.22415098276778184
0.1794109301863428,0.11041162146488787,0.3527379109098081,0.22236995798917011
0.17718320591362943,0.1089095365497737,0.34848283305006,0.2206136157364657
0.17498652869290648,0.10742963849429338,0.3442859998581522,0.2188815285487238
0.17282042977278153,0.10597157888935332,0.3401465420375116,0.2171732777384991
0.17068444793667142,0.10453501507922225,0.3360636041284579,0.2154884531708159
0.16857812937454678,0.10311961006178061,0.33203634427545015,0.2138266530490837
0.16650102755699664,0.10172503239060066,0.32806393399847145,0.2121874837076967
0.16445270311156723,0.10035095607881811,0.3241455579684782,0.21057055941107097
0.16243272370133088,0.09899706050476315,0.32028041378682826,0.2089755021588787
0.1604406639056425,0.097663030319314,0.3164677117686221,0.20740194149725324
0.15847610510304022,0.09634855535494002,0.3127066747298757,0.20584951433574347
0.15653863535624984,0.09505333053640119,0.3089965377784585,0.2043178647698083
0.15462784929925202,0.09377705579307194,0.3053365481087196,0.20280664390865139
0.15274334802637246,0.09251943597285672,0.30172596479973857,0.20131550970819814
0.15088473898335672,0.0912801807576677,0.298164058617129,0.19984412680903518
0.1490516358603911,0.09005900458043259,0.29465011181833134,0.19839216637912924
0.14724365848703283,0.08885562654360463,0.29118341796132463,0.19695930596115788
0.14546043272901288,0.0876697703391443,0.2877632817166995,0.19554522932428628
0.14370159038687558,0.08650116416994524,0.2843890186830267,0.19414962632023422
0.1419667690964206,0.08534954067267586,0.2810599552054569,0.1927721927434804
0.14025561223091235,0.08421463684201025,0.27777542819749845,0.1914126301954611
0.13856776880502414,0.08309619395622081,0.2745347849659079,0.19007064595262207
0.13690289338048325,0.08199395750410704,0.27133738303863875,0.18874595283819207
0.13526064597338597,0.08090767711323493,0.2681825899957906,0.1874382690975466
0.13364069196314993,0.07983710647946174,0.2650697833035047,0.18614731827704287
0.13204270200307372,0.07878200329772139,0.2619983501507497,0.18487282910620237
0.1304663519324733,0.0777421291940476,0.25896768728894437,0.18361453538313272
0.12891132269036534,0.07671724965880972,0.25597720087436815,0.18237217586307425
0.12737730023066912,0.07570713398113926,0.25302630631330314,0.18114549414997075
0.12586397543889782,0.07471155518452455,0.2501144281098626,0.17993423859095964
0.12437104405031202,0.07373028996355113,0.24724099971645264,0.17873816217368746
0.12289820656950773,0.07276311862176615,0.24440546338682267,0.17755702242635577
0.12144516819141232,0.07180982501064587,0.24160727003165205,0.17639058132040775
0.12001163872366236,0.07087019646964582,0.23884587907663302,0.17523860517576997
0.11859733251033736,0.06994402376731257,0.2361207583229996,0.1741008645685658
0.11720196835702448,0.06903110104343746,0.23343138381045958,0.17297713424122102
0.11582526945718966,0.0681312257522334,0.23077723968248587,0.171867193014884
0.11446696331983056,0.06724419860651432,0.2281578180539252,0.17077082370408786
0.11312678169838836,0.06636982352286008,0.22557261888087932,0.16968781303358252
0.11180446052089435,0.06550790756774727,0.22302114983282162,0.16861795155726833
0.11049973982132949,0.06465826090462862,0.22050292616690537,0.16756103357916602
0.10921236367217357,0.06382069674194268,0.21801747060442556,0.16651685707635858
0.10794208011812334,0.0629950312820376,0.2155643132093945,0.16548522362384468
0.10668864111095691,0.062181083670991066,0.21314299126919445,0.16446593832124512
0.10545180244552457,0.061378675949310124,0.21075304917726823,0.163458809721304
0.10423132369684465,0.060587633003494845,0.2083940383178131,0.16246364976013244
0.10302696815828438,0.05980778251844965,0.20606551695243946,0.16148027368914025
0.10183850278080622,0.05903895493072675,0.2037670501087614,0.16050850000860553
0.10066569811326015,0.05828098338258636,0.2014982094708826,0.15954815040283366
0.09950832824370251,0.05753370367685856,0.1992585732717469,0.15859904967685837
0.09836617074172335,0.056796954232592456,0.1970477261873138,0.15766102569463888
0.09723900660176349,0.05607057604147775,0.19486525923253462,0.15673390931871045
0.09612662018740356,0.05535441262502483,0.1927107696590895,0.1558175343512451
0.09502879917660725,0.0546483099924896,0.1905838608548598,0.1549117374764818
0.09394533450790193,0.053952116599528754,0.18848414224510002,0.15401635820448745
0.09287602032747916,0.05326568330757342,0.18641122919528463,0.15313123881621063
0.09182065393719885,0.05258886334390689,0.1843647429155928,0.1522562243097902
0.09077903574348045,0.05192151226243413,0.1823443103670095,0.15139116234808542
0.08975096920706596,0.051263487905130745,0.18034956416900916,0.15053590320739083
0.08873626079363789,0.05061465036415835,0.17838014250879497,0.1496902997273067
0.08773471992527804,0.04997486194463485,0.1764356890520693,0.14885420726172824
0.08674615893275095,0.049343987128047606,0.1745158528553019,0.14802748363092752
0.08577039300859823,0.048721892536297995,0.17262028827947717,0.14720998907469512
0.0848072401610285,0.04810844689636529,0.17074865490528768,0.146401586206514
0.08385652116858888,0.04750352100557953,0.16890061744975138,0.14560213996873814
0.0829180595356045,0.04690698769749213,0.16707584568423006,0.14481151758874833
0.08199168144837166,0.04631872180833285,0.16527401435381783,0.144029588536059
0.08107721573209187,0.045738600144043684,0.16349480309808118,0.1432562244803519
0.08017449380853309,0.04516650144787815,0.16173789637312597,0.14249129925041143
0.07928334965440534,0.04460230636855661,0.1600029833749652,0.14173468879393855
0.07840361976043833,0.04404589742896747,0.15828975796416822,0.14098627113821988
0.07753514309114812,0.04349715899540407,0.15659791859176608,0.140245926351631
0.07667776104528101,0.042955977247328414,0.15492716822639419,0.13951353650595175
0.07583131741692262,0.04242224014765139,0.15327721428264618,0.1387889856394724
0.07499565835725991,0.04189583741352121,0.15164776855062456,0.13807215972087306
0.07417063233698556,0.041376660487610184,0.15003854712665876,0.137362946613853
0.07335609010933236,0.040864602509891546,0.14844927034517785,0.13666123604249525
0.07255188467372711,0.04035955828989707,0.14687966271171304,0.13596691955734494
0.07175787124005295,0.039861424279447555,0.14532945283701415,0.13527989050218608
0.07097390719350943,0.03937009854584689,0.1437983733722552,0.13460004398149802
0.07019985206005977,0.0388854807455325,0.14228616094531543,0.13392727682857616
0.06943556747245494,0.038407472098173134,0.14079255609811647,0.13326148757429984
0.06868091713682475,0.03793597536120674,0.13931730322499325,0.13260257641653228
0.06793576679982571,0.03747089480481014,0.13786015051208533,0.1322845365853179
0.06719998421633558,0.037012136187293265,0.13642084987772862,0.13208783405500757
0.06647343911768627,0.03655960673091008,0.13499915691383158,0.13189061387585954
0.06575600318042402,0.03611321509807919,0.13359483082821688,0.1316928988528443
0.06504754999558915,0.03567287136800651,0.13220763438791439,0.13149471126861323
0.06434795503850521,0.035238487013703246,0.13083733386338636,0.13129607289649314
0.0636570956390694,0.03480997487939208,0.1294836989736714,0.13109700501308408
0.06297485095253513,0.03438724915829472,0.1281465028324298,0.1308975284104661
0.06230110193077823,0.03397022537079403,0.12682552189487506,0.1306976634080339
0.06163573129403857,0.03355882034296409,0.12552053590557666,0.1304974298639734
0.060978623503128604,0.0331529521854626,0.12423132784711788,0.130296847186391
0.06032966473210091,0.03275254027277741,0.12295768388959671,0.13009593434411115
0.05968874284136666,0.0323575052228231,0.12169939334095248,0.12989470987715235
0.059055747351257404,0.03196776887687991,0.12045624859810578,0.12969319190689466
