jointMR1,jointMR2,jointMR3,force
5.515364160422006,5.670116100145171,7.465062679510794,6.044544223248106
5.215714923488385,5.361985096203993,7.050301481939776,5.73803755906776
4.931941895918069,5.070172773824352,6.657693324151774,5.447709323212232
4.663211625954364,4.793822431613632,6.286071820411708,5.172711724039268
4.4087342666671105,4.532122193001876,5.934331675045559,4.912241284248515
4.170464112695275,4.284302664046458,5.601425489205107,4.665536526582826
3.9721187096089485,4.049634713551513,5.28636073441258,4.4318757803544475
3.782844836545873,3.8287703698643307,4.988196884177359,4.210575102488853
3.6022334668335607,3.6227598177277613,4.706042695431597,4.000986307108256
3.4298939165133544,3.427591861476384,4.439053631962336,3.802495097988782
3.2654530234944157,3.2426996459374084,4.186429422426132,3.6145192985211976
3.108554363410872,3.067545901741971,3.975644832188331,3.4365071740852406
2.9588575005415754,2.901621401544776,3.779607919340953,3.2679358420133737
2.816037272225122,2.744443496803286,3.5926532377835465,3.108309764571607
2.679783105272928,2.5955547309121774,3.4143688658195166,2.957159320623642
2.549798362950026,2.45452152470827,3.2443614062796673,2.814039451870879
2.425799721157182,2.3209329305690525,3.0822551564133027,2.6785283797751807
2.307516572509017,2.194399451525089,2.952881962539469,2.5502263894745374
2.19469045706114,2.0745519219933946,2.8452794404314266,2.4287546771943638
2.087074518495037,1.9717529066018924,2.741394875524415,2.313754257839723
1.9844329846227142,1.881612211729543,2.6411012821172006,2.204884929626805
1.8866592515193188,1.7955298897131284,2.5442759934121364,2.1018242927759636
1.7934607873828807,1.7133256227931015,2.4749992842329913,2.0042668194440703
1.7045888667940048,1.6348270616335676,2.4248287341207178,1.9119229722212472
1.6198470552134163,1.5598694739526389,2.3756643865142935,1.824518368656686
1.5541725205934924,1.4882954086334625,2.327484285704687,1.7417929894106006
1.5002976206110767,1.4199543746340533,2.280267034999554,1.6635004277547771
1.4482698635784084,1.3554254784472684,2.2339917794909745,1.589407178263114
1.3995625788272426,1.3079787671200396,2.1886381894498177,1.519291962646169
1.3550957793972014,1.2621624122703001,2.1441864443214227,1.4529450907905923
1.3225014013937078,1.2179208225115907,2.100617217298389,1.3901678551654988
1.296437914233244,1.1752002958591337,2.0579116604472794,1.3307719568538048
1.270894576016849,1.1339489555753974,2.016051390367036,1.2745789615574725
1.2458600432455016,1.0941166881952384,1.975018474357853,1.2214197840118066
1.2213232617143335,1.055655083656432,1.9347954170801414,1.1711341993256155
1.1972734575688149,1.0185173774639342,1.8953651476840916,1.123570379841497
1.1737001286870838,0.9826583948186663,1.8567110073911648,1.0785844561838698
1.150593036375221,0.9480344966439719,1.8188167375096265,1.0360401012319442
1.1279421973628523,0.9146035274451857,1.781666467866993,0.9958081358207246
1.1057378760869725,0.882324764939952,1.745244705642988,0.9577661550356413
1.0839705772524284,0.8511588713990584,1.7098984463328242,0.932212573783443
1.0626310386579623,0.8210678466396114,1.6807414735019581,0.9141410673340974
1.0417102242772114,0.7920149826143549,1.6521321907510118,0.8964243878032959
1.021199317584497,0.7653893687970204,1.6240596485820955,0.8790549842740808
1.0010897151156621,0.7509949826601297,1.5965131358646911,0.8620254922517854
0.9813730202546491,0.7368808867024863,1.5694821739587963,0.8453287280742385
0.9620410372368766,0.7230411403203776,1.5429565110065624,0.8289576835218817
0.9430857653608664,0.7094699488402856,1.5169261163868513,0.8129055206197787
0.9244993933999412,0.6961616591779156,1.4913811753273518,0.7971655666238486
0.9062742942061246,0.6831107556510212,1.4663120836690837,0.7817313091839673
0.8884030194987469,0.6703118559399286,1.4417094427783108,0.7665963916768948
0.8708782948305429,0.6577597071898795,1.4175640546010644,0.7517546087023034
0.8536930147243478,0.6454491822495989,1.3938669168556574,0.7371999017354369
0.8368402379737709,0.633375276040703,1.370609218358728,0.7229263549302255
0.8203131831015271,0.6215331020527999,1.3477823344805235,0.7089281910669358
0.8041052239693379,0.6099178889593615,1.3253778227252833,0.6951997676386881
0.7882098855335964,0.5985249773496248,1.3033874184327274,0.6817355730713992
0.7726208397412107,0.587349816572011,1.2818030305968098,0.6685302230719572
0.7573319015602875,0.576387961684715,1.2606167377980166,0.6555784570996339
0.7423370251405272,0.5656350705093187,1.2398207842456426,0.6428751349559678
0.727630300098419,0.5550869007834387,1.2194075759265868,0.630415233488528
0.7132059479225281,0.5447393074085891,1.1993696768573399,0.6181938434041875
0.69905831849436,0.5345882397896191,1.1796998054359598,0.6062061661876919
0.6851818867204673,0.524629739262195,1.1603908308909254,0.5944475111215017
0.6715712492716557,0.5148599366049869,1.1414357698238886,0.5829132924030468
0.6582211214252969,0.5052750496333289,1.122827782843438,0.571599026355692
0.6451263340069349,0.49587138087126564,1.1045601712870858,0.5605003287298671
0.6322818304275248,0.4866453152990288,1.0866263740287962,0.5496129120909601
0.6196826638127808,0.4775933181731003,1.0690199643694571,0.5389325832907197
0.6073239942212689,0.4687119329161405,1.0517346470077915,0.5284552410190305
0.5952010859480086,0.45999777907417555,1.034764255089287,0.5181768734330727
0.5833093049104736,0.45144755033853584,1.0181027473308186,0.5080935558609886
0.5716441161140203,0.44305801263014316,1.0017442052186882,0.49820144857730086
0.560256347212337,0.43482600224385176,0.9856828302779246,0.4884967946474341
0.5507866399775421,0.4267484240506218,0.9699129414107213,0.47897591783881066
0.5414905708364196,0.41882224975541466,0.9544289723019873,0.4696352205960803
0.5323648048463981,0.41104451620877275,0.9392254688900427,0.4604711820781549
0.5234060750510713,0.403412323770131,0.9242970869005557,0.4514803562548056
0.5146111809566745,0.3959228347209906,0.9096385894418925,0.4426593700606726
0.5059769870476026,0.38857327172615225,0.8952448446600988,0.43400492160462834
0.49750042133980255,0.3813609163412877,0.8811108234517968,0.42551377843251
0.489178473970918,0.37428310756519306,0.8672315972333461,0.4171827758413221
0.48100819582609766,0.3673372404351311,0.8536023357646506,0.40900881524308863
0.4729866971984182,0.36052076466373634,0.8402183050260728,0.40587625393763815
0.4651111464829075,0.35383118331602176,0.827074865146945,0.4076076896323034
0.4573787689031878,0.3472660515250698,0.8141674683842298,0.40918693169234766
0.4497868452697902,0.3408229752450645,0.8014916571499239,0.41062293773859915
0.44233271076922676,0.3344996100403624,0.7890430620858392,0.41192417964777506
0.43501375378293244,0.3282936599093507,0.7768174001844602,0.413098669246751
0.427827414735223,0.32220287614190074,0.7648104729545835,0.41415398265903625
0.4207711849694386,0.31622505620925917,0.7530181646305247,0.41509728337394514
0.41384260565147457,0.31035804268527306,0.7414364404236884,0.41593534410526356
0.4070392666999238,0.30459972219788395,0.7300613448153455,0.41667456750273124
0.4003588057420821,0.2989480244098636,0.7188889998895027,0.41732100577634235
0.3937989070950909,0.2934009210278192,0.70791560370478,0.4178803792903407
0.3873573007715169,0.2879564248385101,0.6971374287042356,0.41835809418080805
0.38103176150868934,0.2826125887715762,0.686550820162138,0.4187592590479293
0.37482010782113795,0.2773675049877959,0.6761521946666795,0.41908870077135385
0.368720201075496,0.2722193039920437,0.6659380386376925,0.41935097949453726
0.3627299445872525,0.2671661537701235,0.6559049068784284,0.41955040282155054
0.35684728273875665,0.262206258948714,0.6460494211605192,0.4196910392675762
0.35107020011789924,0.2573378599776673,0.6363682688412255,0.41977673100215007
0.34539672067690946,0.2525592323339458,0.626858201512152,0.4198111059221734
0.33982490691072725,0.24786868574649795,0.6175160336785996,0.4197975890897796
0.33435285905442536,0.24326456344141184,0.6083386414687579,0.41973941356830946
0.3289787142991738,0.23874524140669856,0.5993229613719817,0.4196396306879082
0.3237006460262528,0.23430912767608741,0.5904659890053896,0.41950111977061766
0.31851686305863763,0.22995466163123796,0.581764777908065,0.4193265973432623
0.3134256089296924,0.22568031332179544,0.5732164383621643,0.4191186258649632
0.3084251611685235,0.22148458280272926,0.564818136240236,0.41887962199470385
0.3035138306015587,0.21736599948843455,0.5565670918781045,0.4186118644230402
0.29868996066992914,0.21332312152307048,0.5484605789726587,0.41831750129079626
0.29395192676224585,0.20935453516664354,0.5404959235039326,0.4179985572163847
0.2892981355623728,0.2054588541963664,0.5326705026808722,0.41765693995226516
0.28472702441181386,0.20163471932282223,0.5249817439101909,0.4172944466899795
0.2802370606863369,0.1978807976204937,0.5174271237877537,0.4169127700321821
0.2758267411864762,0.19419578197223097,0.5100041671119198,0.416513503649134
0.27149459154155864,0.19057839052724718,0.5027104459183249,0.4160981476361949
0.26723916562691385,0.1870273661722368,0.49554357853555975,0.41566811358800326
0.26305904499393673,0.18354147601523896,0.4885012286612438,0.41522472940420285
0.2589528383126802,0.1801195108818726,0.4815811044579994,0.41476924384079816
0.2549191808266667,0.1767602848235859,0.4747809576688502,0.41430283082048447
0.2509567338196139,0.173462634637573,0.46809858275155736,0.41382659351460815
0.24706418409378159,0.1702254193980287,0.46153181603146676,0.4133415682087358
0.24324024345965212,0.16704751999841305,0.45507853487240046,0.41284872796319927
0.23948364823666735,0.1639278387044204,0.4487366568651794,0.4123489860793784
0.23579315876475176,0.1608652987173485,0.4425041390333413,0.4118431993819255
0.23216755892635935,0.1578588437475799,0.4363789770556763,0.41133217132660205
0.228605655678789,0.15490743759789183,0.4303592045051454,0.4108166549428859
0.22510627859652088,0.1520100637563273,0.4244428921038381,0.410297355620037
0.22166827942333245,0.1491657249983624,0.4186281469935569,0.4097749337448482
0.21829053163396,0.146373442998117,0.4129131120216949,0.4092500071988793
0.21497193000507794,0.14363225794836437,0.40729596504203247,0.40872315372256307
0.21171139019537424,0.14098175083304518,0.401774918230112,0.408194913153192
0.20850784833450703,0.1386597947314632,0.39634821741286475,0.4076657895434116
0.20536026062073146,0.1363785323986996,0.39101414141214597,0.407136253166521
0.20226760292699467,0.1341372249407415,0.38577100140187115,0.4066067424145319
0.19922887041529935,0.1319351473564396,0.38061714027844085,0.4060776655946372
0.1962430771591437,0.1297715882629669,0.37555093204414947,0.4055494026294394
0.19330925577384844,0.1276458496271445,0.37057078120328324,0.40502230666601124
0.19042645705459063,0.12555724650250003,0.3656751221706296,0.40449670559859363
0.18759374962196418,0.12350510677191726,0.36086241869210056,0.40397290350948467
0.18481021957489363,0.1214887708957458,0.35613116327721706,0.40345118203243546
0.18207497015073532,0.11950759166523997,0.3514798766431799,0.40293180164263986
0.17938712139239837,0.11756093396120174,0.3469071071702605,0.40241500287719645
0.1767458098223278,0.11564817451770562,0.34241143036828126,0.4019010074897108
0.17415018812319252,0.11376870169078437,0.3379914483539186,0.4013900195425195
0.17159942482512844,0.11192191523195963,0.3336457893386,0.40088222643983107
0.16909270399938597,0.11010722606650794,0.3293731071267558,0.40037779990490785
0.16662922495824142,0.10832405607634701,0.3251720806242109,0.39987689690425066
0.16420820196102887,0.10657183788743793,0.3210414133564685,0.399379660521587
0.16182886392615745,0.1048500146616004,0.3169798329967044,0.39888622078432434
0.1594904541489805,0.10315803989263742,0.31298609090322915,0.39839669544498335
0.15719223002538668,0.1014953772066696,0.3090589616662276,0.3979111907199999
0.15493346278098627,0.09986150016658737,0.30519724266357384,0.39742980198815203
0.15271343720576877,0.09825589208052202,0.3013997536255244,0.39695261445076035
0.1505314513941132,0.09667804581424902,0.29766533620809454,0.3964797037556831
0.14838681649003113,0.09512746360743138,0.29399285357493343,0.39601113658703524
0.14627885643753044,0.0936036568936178,0.29038118998752616,0.39554697122245186
0.14420690773598627,0.09210614612391185,0.2868292504035159,0.39508725805961886
0.1421703192004124,0.09063446059422817,0.2833359600830143,0.3946320401137091
0.14016845172652362,0.08918813827605823,0.27990026420269354,0.39418135348727457
0.13820067806048913,0.08776672565066432,0.2765211274775119,0.3937352278140569
0.13626638257327384,0.08636977754662858,0.2731975337899102,0.3932936866781137
0.13436496103946832,0.08499685698068157,0.2699284858263227,0.39285674800957315
0.13249582042051328,0.08364753500173658,0.26671300472083836,0.392424424458267
0.13065837865222243,0.08232139053806323,0.2635501297058749,0.3919967237464247
0.1288520644365139,0.0810180102475265,0.2604389177697113,0.3915736490015468
0.1270763170372585,0.0797369883708289,0.2573784433207371,0.3911551990705221
0.1253305860801602,0.07847792658768601,0.2543677978582768,0.39074136881599186
0.12361433135658045,0.07724043387587512,0.2514060896498549,0.39033214939590866
0.12192702263122618,0.07602412637309294,0.24849244341476773,0.3899275285272039
0.12026813945361706,0.07482862724156195,0.24562600001382662,0.3895274907344063
0.11863717097325499,0.07365356653532559,0.24280591614515235,0.38913201758402605
0.11703361575841678,0.0724985810701759,0.24003136404588932,0.3887410879054718
0.11545698161849505,0.07136331429615653,0.23730153119971686,0.3883546779992264
0.11390678542981272,0.07024741617258415,0.2346156200500511,0.38797276183296636
0.1123825529648391,0.06915054304553844,0.2319728477188001,0.38759531122627955
0.1108838187247369,0.0680723575277645,0.22937244573057414,0.38722229602459834
0.10941012577517098,0.06701252838093827,0.226813659742239,0.38685368426293
0.1079610255853117,0.0659707304002454,0.22429574927768847,0.38648944231994
0.10653607786996616,0.06494664430122252,0.22181798746775372,0.3861295350629128
0.10513485043477422,0.06393995660881588,0.2193796607951206,0.3857739259840822
0.10375691902440498,0.06295035954860859,0.2169800688441721,0.3854225773288097
0.10240186717369287,0.06197755094017335,0.2146185240556413,0.38507545021604483
0.10106928606165339,0.06102123409250401,0.21229435148599496,0.3847325047515029
0.09975877436831893,0.06008111770148297,0.21000688857143013,0.38439370013394336
0.09846993813433774,0.0591569157493432,0.20775548489641715,0.3840589947549422
0.09720239062328007,0.058248347406083395,0.20553950196666637,0.38372834629250563
0.09595575218659552,0.05735513693279401,0.20335831298646445,0.38340171179886684
0.0947296501311693,0.05647701358685689,0.20121130264025977,0.38307904778279067
0.09352371858942266,0.05561371152897707,0.19909786687844044,0.3827603102866848
0.09233759839190919,0.05476496973201403,0.19701741270719286,0.38244545495880555
0.09117093694235323,0.05393053189156874,0.1949693579823919,0.3821344371208367
0.09002338809508409,0.05311014633829572,0.1929531312074111,0.3818272118310877
0.0888946120348163,0.05230356595190347,0.19096817133479282,0.38152373394356887
0.08778427515873,0.0515105480768073,0.18901392757169955,0.3812239581631621
0.08669204996080282,0.0507308544394027,0.18708985918907173,0.38092783909711536
0.08561761491835301,0.04996425106692523,0.1851954353344063,0.38063533130306004
0.08456065438074473,0.04921050820786574,0.18333013484810445,0.38034638933375386
0.0841363925942179,0.04846940025390781,0.18149344608330664,0.38006096777872966
0.08386102448812316,0.047740705663358834,0.17968486672914485,0.37977902130302743
0.08358941119514526,0.04702420688604289,0.1779039036373431,0.37950050468317664
0.08332143164255021,0.04631969028962604,0.17615007265212124,0.37922537284058155
0.08305696910919388,0.04562694608734649,0.17442289844329828,0.37895358087246533
0.08279591107212483,0.04494576826711991,0.172721914342576,0.3786850840805065
0.0825381490584921,0.04427595452199398,0.17104666218290454,0.37841983799730305
0.08228357850257673,0.04361730618192308,0.16939669214089048,0.3781577984107948
0.08203209860777172,0.042969628146840105,0.1677715625821865,0.37789892138675196
0.08178361221334102,0.04233272882099473,0.16617083990979098,0.3776431632894567
0.08153802566579399,0.041706420048537335,0.164594098415215,0.3773904808006713
0.08129524869471727,0.0410905170503226,0.16304092013245697,0.377140830937
0.08105519429291153,0.040484838361906444,0.16151089469472768,0.37689417106574286
0.08081777860068562,0.03988920577271629,0.1600036191938723,0.37665045891932003
0.08058292079416557,0.03930344426636803,0.1585186980424398,0.3764096526083679
0.08035054297748101,0.0387273819621092,0.15705574283834678,0.37617171063357024
0.08012057007869616,0.038160850057365886,0.1556143722320904,0.37593659189631623
0.07989292974935669,0.03760368277137119,0.15419421179644588,0.3757042557082447
0.07966755226752886,0.03705571728985338,0.15279489389862366,0.37547466179975053
0.07944437044421115,0.036516793710764966,0.1514160575748158,0.3752477703275138
0.07922331953300199,0.035986754991029574,0.15005734840710616,0.37502354188111464
0.07900433714291283,0.03546544689428979,0.14871841840267752,0.37480193748878654
0.07878736315421814,0.03495271793963353,0.14739892587529346,0.37458291862236937
0.07857233963723748,0.03444841935128137,0.14609853532899253,0.374366447201507
0.0783592107739503,0.03395240500921645,0.14481691734396396,0.37415248559714065
0.07814792278234473,0.033464531400737546,0.14355374846455837,0.3739409966343429
0.07793842384340724,0.03298465757291755,0.1423087110893937,0.3737319435945371
0.07773066403066242,0.03251264508595095,0.1410814933635185,0.3735252902171391
0.07752459524217464,0.03204835796737168,0.1398717890725787,0.37332100070066454
0.07732017113492723,0.03159166266712424,0.13867929753898167,0.37311903970333293
0.07711734706149787,0.031142428013474194,0.13750372351997986,0.37291937234320793
0.07691608000895,0.030700525169738285,0.13634477710767,0.3727219641978996
0.0767163285398654,0.0302658275918212,0.13520217363084908,0.3725267813038672
0.07651805273544282,0.02983821098654174,0.1340756335587061,0.37233379015534274
0.07632121414059256,0.02967039986407427,0.13296488240630722,0.37214295770290884
0.07612577571095758,0.02970662124548834,0.13186965064184486,0.37195425135175286
0.07593170176179515,0.029741874579918726,0.130789673595604,0.3717676389596234
0.07573895791865443,0.02977617158188317,0.12972469137064224,0.3715830888345085
0.07554751106978858,0.029809524050902758,0.12867444875511302,0.37140056973206237
0.07535732932024103,0.02984194385693001,0.1276386951362325,0.3712200508527951
0.07516838194754838,0.029873442926614202,0.12661718441584235,0.3710415018390464
0.0749806393590044,0.02990403323035773,0.1256096749275406,0.3708648927717645
0.07479407305043034,0.029933726770133062,0.12461592935535792,0.37069019416710025
0.0746086555664005,0.02996253556801548,0.12363571465393974,0.37051737697283793
0.07442436046187209,0.029990471655402584,0.12266880197021246,0.3703464125646748
0.074241162265171,0.030017547062883565,0.12171496656650538,0.37017727274236556
0.07405903644228679,0.030043773810729812,0.12077398774509707,0.37000992972573943
0.07387795936243119,0.03006916389997205,0.11984564877416592,0.36984435615061084
0.07369790826481651,0.03009372930404014,0.11892973681510743,0.36968052506458626
0.07351886122661216,0.030117481960933112,0.1180260428512061,0.3695184099227854
0.0733407971320375,0.030140433765896202,0.11713436161762636,0.36935798458348146
0.07316369564255254,0.03016259656457876,0.11625449153269951,0.36919922330367316
0.07298753716810788,0.03018398214665008,0.11538623463048614,0.36904210073459676
0.07281230283941759,0.030204602239845724,0.11452939649458682,0.36888659191718465
0.07263797448121878,0.03022446850443028,0.11368378619317898,0.36873267227748385
0.07246453458648422,0.03024359252804837,0.11284921621525212,0.3685803176220319
0.0722919662915551,0.03026198582094869,0.11202550240802966,0.36842950413320885
0.07212025335216093,0.03027965981155961,0.11121246391554318,0.3682802083645622
