jointMR1,jointMR2,jointMR3,force
5.785687229121829,5.945960434169542,7.713684332361931,6.044544223255337
5.465154050701745,5.61664663223027,7.276232460614868,5.71410734461789
5.161929094408596,5.305078604422967,6.862567907389701,5.401207824433292
4.875087188172556,5.010308762350644,6.4714162452901345,5.104924461924708
4.6037524265600265,4.731439954300225,6.101570962932724,4.824384262981931
4.3470955509668,4.467622783795779,5.751889852573541,4.558759921075927
4.1043314690465,4.218053070648272,5.421291589735797,4.307267429737766
3.874716905975987,3.9819694469306164,5.1087524946362155,4.0691638197322515
3.657548180552449,3.758651080709024,4.813303465749932,3.843745014415249
3.4521590994890854,3.547415520742601,4.534027076367014,3.630343797103637
3.25943578099967,3.3476166557236806,4.2700548254796376,3.428327884609045
3.0790697445835837,3.1586427819729734,4.022613987811617,3.237098101391834
2.9083927566271335,2.979914773826897,3.7916469492265095,3.0560866490812946
2.7597435304825413,2.8108843512606176,3.5732451192382526,2.8847554663822974
2.6283492892125535,2.6510324395802822,3.369746986886461,2.7225946746486414
2.5029078254271675,2.499867616292342,3.2557591881010266,2.569121104649803
2.3831541305272963,2.3569246405178608,3.1454144324985664,2.4238769002912917
2.2688349149708644,2.221763060565752,3.038597806513593,2.286428195270228
2.159708091406844,2.0939658955119436,2.935198005798402,2.1563638588575427
2.064777319524794,1.9731383868521135,2.8351072219875606,2.038326195383075
1.99657448186916,1.8589068165045668,2.738221033017483,1.940323496360724
1.930539502758605,1.7509173876376671,2.644438296889243,1.8467811423642297
1.8666041404571543,1.6488351649835105,2.5536610487663216,1.7575001727401407
1.804702294601095,1.5523430714769568,2.4657944013023845,1.6722904327857329
1.7447699390416531,1.4611409382270215,2.3807464480975153,1.6048854814287719
1.6867450567959512,1.3777223646038548,2.298428170184529,1.552258643797215
1.6305675770399217,1.3347417134768922,2.230350361245068,1.5013043918801763
1.57617931407893,1.2931190684566358,2.174718846130147,1.4519700594096636
1.5235239082338838,1.2528116639180982,2.130392696600066,1.404204633068782
1.4725467685826021,1.2137780771782123,2.0887464968280103,1.3579587006454679
1.4231950174980648,1.1759781863802168,2.0480519950978517,1.313184400814044
1.375417436927069,1.139373129698932,2.008283424085491,1.2698353744933464
1.3291644163545344,1.1039252658254333,1.9694158240915298,1.2278667177318374
1.2843879024004914,1.0695981356909534,1.9314250148652445,1.1872349360716428
1.2410413499984012,1.0363564253910984,1.8942875684845495,1.1478979003450083
1.1990796751051198,1.0041659302726886,1.8579807832504645,1.1098148038580984
1.1584592088943508,0.972993520146731,1.8224826585562837,1.0729461209185294
1.1191376533869755,0.9428071055921572,1.787771870693259,1.0372535666643519
1.0810740384731008,0.9135756053161066,1.7575016721196708,1.0027000581535854
1.044228680282106,0.8852689145375725,1.729460605218314,0.9692496766746513
1.0085631408583224,0.8578578743623075,1.7019941420891105,0.9473477098800597
0.9740401891013413,0.8313142421178741,1.6750867990214462,0.9300325070816582
0.9406237629312235,0.805610662618701,1.6487236425161615,0.9132259577258431
0.9082789326401308,0.7807206403319826,1.6228902653573498,0.8969075530629864
0.8769718653931289,0.7566185124161364,1.597572763845609,0.8810577644695838
0.8486915590741618,0.733279422604451,1.5727577161334443,0.8656579932574839
0.8322992152935692,0.7106792959074157,1.548432161606606,0.8506905231165522
0.816277228826698,0.6887948141080293,1.5245835812580881,0.8361384750514816
0.8006156938075156,0.6676033920252364,1.501199879004289,0.8219857646808382
0.7871321487032764,0.6470831545213815,1.4782693638954627,0.8082170617734385
0.7743600099019765,0.6272129142303524,1.4557807331750894,0.7948177519037607
0.7618480253254398,0.607972149983806,1.4337230561451526,0.7817739001143852
0.7495893466855797,0.5893409859135874,1.4120857587965472,0.769072216479382
0.7375773609179765,0.5727943483031924,1.3908586091659614,0.7567000234681943
0.7258056802550951,0.559554490718362,1.3700317033825922,0.744645225014895
0.7142681327719884,0.5466931045643069,1.3495954523699412,0.7328962772027271
0.7029587533806265,0.534196372950841,1.3295405691697597,0.7214421604786286
0.6918717752502238,0.522051085740213,1.3098580568569012,0.7102723533169455
0.6810016216321139,0.5102446100168645,1.2905391970154703,0.6993768072558394
0.6703428980688337,0.4987648620658528,1.2715755387481869,0.6887459232339318
0.6598903849681306,0.48760028078117956,1.252958888192333,0.6783705291585781
0.6496390305236026,0.4767398024294205,1.234681298517032,0.668241858640801
0.6395839439646335,0.4661728366979816,1.21673506037791,0.6583515308353443
0.629720389119174,0.45588924396103003,1.1991126928064277,0.648691531327584
0.6200437782737738,0.4458793136996757,1.1818069345123408,0.6392541940121063
0.6105496663160714,0.436133744016314,1.164810735578854,0.6300321839106949
0.6012337451457138,0.42664362218621055,1.1481172495310903,0.6210184808802369
0.5920918383403977,0.4174004061923966,1.1317198257594936,0.6122063641636711
0.5831198960644093,0.4083959071927852,1.1156120022807163,0.6035893977395956
0.5743139902076919,0.39962227287110363,1.0997874988194547,0.5951614164284932
0.5656703097440804,0.3910719716257839,1.0842402101955315,0.5869165127157633
0.5571851562979262,0.3827377775533609,1.0689642000013309,0.5788490242538559
0.5488549399088929,0.37461275618521317,1.0539536945554566,0.5709535220078005
0.5406761749852174,0.3666902509386415,1.0392030771192005,0.5632247990103076
0.532645476436238,0.3589638702453306,1.024706882363098,0.555657859694421
0.5247595559754503,0.35142747532217733,1.0104597910714932,0.5482479097733808
0.5170152185858079,0.34407516855130593,0.9964566250736476,0.5409903466389717
0.5094093591393976,0.33690128243783235,0.9826923423905198,0.5338807502511485
0.5019389591640282,0.3299003691155884,0.9691620325868804,0.5269148744931682
0.49460108374964384,0.32306719037257325,0.9558609123189652,0.5200886389678215
0.48739287858783825,0.31774708988855094,0.942784321068355,0.5133981212116506
0.48031156713808415,0.3125880681269493,0.9299277170532482,0.5068395493052579
0.4733544479146167,0.3075249023129296,0.9172866733087324,0.5004092948589671
0.4665188918882168,0.3025554702296742,0.9048568739280896,0.49410386635420317
0.4598023399974288,0.29767770941676086,0.8926341104575677,0.48791990282198233
0.4532023007640259,0.29288961499977195,0.8806142784374308,0.48185416784089635
0.44671634800779414,0.2881892376150462,0.868793374082463,0.47590354383790173
0.44034211865595696,0.2835746814249468,0.8571674910954418,0.47006502667610583
0.43407731064279464,0.2790441022192527,0.8457328176074204,0.4643357205145801
0.4279196808952374,0.27459570559851,0.8344856332389667,0.4587128329260163
0.4218670434004217,0.27022774523538423,0.8234223062767984,0.4531936702587919
0.41591726735139867,0.2659385212102655,0.8125392909605278,0.4477756332307241
0.410068275367375,0.2617263784175593,0.8018331248744965,0.44245621274245406
0.4043180417850468,0.2575897050392838,0.791300426439925,0.43723298589904885
0.39866459101775564,0.25352693108276303,0.7809378925028392,0.4321036122290028
0.3931059959793615,0.24953652697936735,0.7707422960134609,0.4270658300903951
0.38764037656987804,0.24561700224140748,0.7607104837929604,0.4221174532544977
0.3822658982200637,0.24176690417443447,0.750839374383671,0.41725636765763874
0.37698077049229894,0.23798481664233634,0.7411259559790555,0.41248052831261633
0.3717832457352125,0.2342693588827529,0.7315672844298993,0.4077879563714057
0.3666716177896427,0.23061918437045498,0.722160481323372,0.4031767363313487
0.36164422074364,0.2270329797264531,0.7129027321317654,0.39864501337741737
0.3566994277343266,0.22350946367071095,0.7037912844278715,0.394190990853538
0.35183564979453796,0.22004738601644658,0.6948234461641096,0.389812927856328
0.3470513347422694,0.21664552670410409,0.6859965840126498,0.3855091369449482
0.34234496611105,0.2133026948731745,0.677308121763917,0.38127798196110524
0.3377150621194531,0.21001772797013452,0.6687555387809794,0.37711787595355145
0.33316017467804326,0.20678949089085763,0.6603363685074515,0.37302727920172424
0.328678888432137,0.20361687515593496,0.6520481970266483,0.3690046973334529
0.3242698198388372,0.20049879811741766,0.6438886616698383,0.36504867953192166
0.3199316162768708,0.1974342021955695,0.6358554496715474,0.36115781682733367
0.31566295518783183,0.19442205414428382,0.627946296869957,0.35733074046895946
0.31146254324749806,0.19146134434388862,0.6201589864505352,0.3535661203734746
0.307329115565952,0.1885510861201244,0.6124913477311298,0.349862663645715
0.3032614349152983,0.18569031508813738,0.6049412549868272,0.3462191131681697
0.2992582909838252,0.18287808852039067,0.5975066263129702,0.34263424625573274
0.2953184996555134,0.18011348473744554,0.5901854225247951,0.33910687337241335
0.29144090231384495,0.1773956025206183,0.5829756460922206,0.3356358369068757
0.2876243651689171,0.17472356054556498,0.5758753401083947,0.33222001000384555
0.28386777860690826,0.172096496835893,0.5688825872906602,0.32885829544857154
0.28017005656099114,0.16951356823594071,0.5619955090126716,0.3255496246016812
0.27653013590282743,0.16697394990190811,0.5552122643664434,0.3222929563819052
0.27294697585381966,0.1644768348105612,0.5485310492531745,0.319087276294276
0.26941955741533363,0.1620214332847683,0.5419500955017387,0.31593159550153654
0.26594688281713935,0.1596069725351632,0.5354676700137857,0.3128249499366028
0.26252797498335534,0.15723269621726277,0.5290820739344433,0.3097663994540472
0.25916187701521076,0.15489786400339867,0.5227916418476541,0.30675502701866536
0.25584765168997303,0.15260175116885266,0.5165947409952261,0.30378993792929665
0.25258438097541647,0.1503436481916141,0.510489770518719,0.3008702590761597
0.24937116555923655,0.14812286036520478,0.5044751607233182,0.29799513823005447
0.2462071243928405,0.14593870742404308,0.4985493723628982,0.2951637433618702
0.24309139424896992,0.14379052318084307,0.4927108959454989,0.2923752619909159
0.24002312929263583,0.14167765517556752,0.4869582510584842,0.28962890056067
0.2370015006648694,0.13959946433547704,0.4812899857126747,0.28692388384061324
0.23402569607881277,0.13755532464583686,0.4757046757047798,0.2842594543528853
0.23109491942769572,0.13554462283086516,0.47020092399748625,0.2816348718225622
0.22820839040426388,0.1335667580445225,0.46477736011658366,0.2790494126504185
0.22536534413124193,0.1316211415707642,0.45943263956453406,0.2765023694070969
0.22256503080243464,0.12970719653289098,0.4541654432499205,0.27399305034765753
0.21980671533408414,0.12782435761165106,0.44897447693223147,0.2715207789455415
0.2170896770261191,0.12597207077176403,0.4438584706814568,0.269084893445021
0.21441320923294668,0.12414979299654733,0.4388161783520028,0.26668474643126594
0.21177661904345263,0.12235699203034567,0.43384637707044127,0.26431970441719543
0.20917922696988883,0.12059314612847227,0.4289478667366369,0.26198914744632634
0.20662036664534184,0.11885774381438663,0.4241194695378139,0.2596924687108724
0.2040993845294875,0.11715028364384422,0.41936002947513673,0.25742907418438243
0.20161563962234977,0.11547027397576554,0.41466841190239934,0.25519838226824604
0.1991685031857931,0.11381723274958233,0.410043503076438,0.2529998234514261
0.19675735847248876,0.11219068726883047,0.40548420971888643,0.25083283998281075
0.19438160046210623,0.11059017399076726,0.4009894585889231,0.2486968855556086
0.19204063560449047,0.1090152383218016,0.396558196066658,0.24659142500323866
0.18973388156959592,0.10746543441853412,0.3921893877468301,0.24451593400619712
0.18746076700395697,0.10594032499421308,0.3878820180424989,0.2424698988094033
0.18522073129348327,0.10443948113041884,0.38363508979841976,0.24045281594955908
0.18301322433237666,0.10296248209380032,0.37944762391381137,0.23846419199207342
0.1808377062979749,0.10150891515769034,0.37531865897422856,0.2365035432771293
0.17869364743133423,0.10007837542843784,0.3712472508922713,0.23457039567449015
0.17658052782337025,0.09867046567629822,0.3672324725568632,0.23266428434666384
0.1744978372063843,0.09728479617073216,0.3632734134908493,0.23078475352005798
0.17244507475080809,0.0959209845199675,0.359369179516668,0.2289313562637849
0.17042174886700603,0.09457865551468592,0.35551889242986223,0.22710365427578325
0.16842737701198118,0.09325744097570071,0.35172168968020623,0.2253012176759459
0.16646148550083584,0.09195697960549798,0.34797672406022495,0.22352362480595692
0.16452360932284407,0.09067691684351842,0.3442831634009007,0.22177046203555273
0.16261329196199792,0.08941690472506109,0.34064019027436143,0.2200413235749415
0.16073008522189464,0.08817660174369701,0.33704700170335555,0.21833581129312116
0.15887354905483753,0.08695567271708188,0.33350280887732464,0.2166535345418551
0.15704325139502612,0.08575378865606431,0.3300068368748923,0.21499410998507307
0.1552387679957178,0.08457062663698861,0.32655832439259247,0.2133571614334745
0.15345968227024592,0.08340586967709485,0.3231565234796687,0.21174231968412788
0.15170558513678345,0.08225920661292263,0.3198006992787754,0.2101492223648612
0.1499760748667463,0.08113033198162994,0.3164901297724325,0.2085775137832577
0.14827075693673272,0.08001894590513914,0.3132241055350671,0.20702684478007108
0.1465892438839,0.0789247539770282,0.3100019294905072,0.20549687258689026
0.144931155164682,0.07784746715208563,0.306822916674772,0.20398726068788625
0.14329611701675543,0.07678680163845342,0.3036863940040313,0.2024976786854858
0.1416837623241651,0.07574247879228213,0.3005917000475906,0.20102780216982108
0.14009373048552165,0.074714225014827,0.2975381848057783,0.19957731259181222
0.13852566728518867,0.07370177165191627,0.29452520949260674,0.1981458971397469
0.1369792247673777,0.07270485489572365,0.291552146323087,0.19673324861922653
0.1354540611130739,0.07172321568878232,0.2886183783050762,0.1953390653363554
0.13394984051971617,0.07075659963017622,0.28572329903554783,0.19396305098405334
0.132466233083559,0.06980475688385102,0.2828663125011728,0.19260491453137993
0.13100291468464537,0.06886744208898443,0.2800468328831023,0.19126437011576158
0.12955956687432205,0.06794441427236164,0.2772642843658497,0.18994113693801828
0.12813587676523164,0.06703543676270118,0.2745181009501745,0.18863493916009202
0.12673153692371641,0.06614027710687892,0.27180772626986216,0.1873455058053819
0.1253462452645725,0.06525870698799946,0.2691326134123153,0.18607257066159627
0.1239797049480941,0.06439050214526715,0.26649222474285583,0.1848158721860364
0.12263162427934934,0.0635354422956082,0.2638860317326541,0.18357515341322822
0.1213017166096313,0.06269331105699905,0.26131351479019593,0.18235016186482428
0.11998970024002956,0.06186389587345659,0.25877416309620416,0.18114064946169978
0.11869529832706902,0.06104698794164737,0.25626747444193354,0.1799463724381715
0.11741823879036484,0.06024238213907468,0.2537929550707594,0.17876709125826964
0.11615825422224299,0.05944987695380294,0.2513501195229815,0.17760257053399706
0.11491508179927862,0.05866927441568093,0.24893849048377192,0.1764525789455117
0.11368846319570472,0.05790038002902642,0.2465575986341897,0.1753168891631727
0.11247814449864577,0.05714300270673528,0.24420698250519446,0.1741952777713907
0.11128387612513191,0.056396954705779656,0.2418861883345904,0.17308752519422765
0.11010541274085073,0.05566205156406201,0.23959476992683149,0.17199341562269102
0.10894251318059486,0.05493811203859028,0.23733228851562482,0.17091273694367307
0.10779494037036483,0.05422495804494326,0.23509831262926761,0.1698452806704842
0.10666246125108775,0.053522414597994394,0.2328924179586589,0.16879084187493354
0.10554484670391348,0.0528303097538631,0.2307141872279206,0.1677492191209113
0.10444187147705145,0.052148474553065705,0.22856321006757563,0.1667202143994298
0.10335331411411114,0.051476742964835676,0.22643908289022296,0.16570363306507938
0.102278956883912,0.05081495183258672,0.2243414087686546,0.16469928377386162
0.10121858571172809,0.05016294082049105,0.2222697973163601,0.16370697842235768
0.10017199011193403,0.04952055236114716,0.22022386457037002,0.16272653208819768
0.09913896312202047,0.04888763160431109,0.218203232876381,0.16175776297179256
0.09811930123794704,0.048264026366667045,0.21620753077611843,0.16080049233929533
0.0971128043508026,0.04764958708261291,0.2142363928968829,0.15985454446675804
0.09611927568474274,0.0470441667560379,0.21228945984323966,0.15891974658545166
0.09513852173617549,0.0464476209130687,0.2103663780907976,0.15799592882831934
0.09417035221416714,0.04585980755576291,0.2084667998820393,0.15708292417753114
0.09321457998204091,0.04528058711672789,0.2065903831241538,0.15618056841311387
0.09227102100014092,0.04470982241464383,0.2047367912888316,0.15528870006262674
0.09133949426973628,0.04414737861067164,0.2029056933139799,0.15440716035185545
0.09041982177803942,0.043593123165725,0.20109676350731687,0.15353579315650157
0.08951182844431396,0.04304692579858693,0.19930968145180583,0.1526744449548386
0.08861534206704819,0.04250865844485413,0.1975441319128899,0.15182296478131382
0.08773019327217033,0.041978195216687886,0.19579980474749137,0.15098120418107025
0.08685621546228317,0.041455412363356536,0.19407639481473438,0.15014901716536774
0.08599324476689535,0.04094018823255019,0.1923736018883624,0.14932626016788086
0.08514111999362761,0.0404324032324519,0.1906911305708061,0.14851279200185205
0.08429968258037313,0.03993193979454829,0.1890286902088758,0.14770847381808008
0.08346877654839074,0.039438682337163966,0.18738599481104035,0.1469131690637247
0.08264824845631125,0.03895251722970389,0.18576276296625926,0.14612674344190646
0.08183794735503697,0.03847333275758813,0.18415871776434045,0.14534906487208601
0.08103772474351556,0.038001019087865295,0.1825735867177869,0.14458000345120142
0.0802474345253692,0.03753546823548842,0.18100710168510648,0.1438194314155499
0.07946693296636076,0.03707657403024084,0.17945899879555083,0.14306722310339395
0.07869607865267936,0.036624232084297215,0.17792901837526043,0.1423232549182769
0.07793473245002805,0.03617833976040674,0.17641690487477857,0.14158740529303254
0.07718275746349612,0.0357387961406852,0.17492240679791626,0.14085955465447206
0.07644001899820008,0.03530550199600313,0.17344527663193143,0.14013958538873453
0.0757063845206766,0.034878359755957766,0.17198527077900483,0.13942738180728526
0.07498172362101213,0.034457273479416184,0.17054214948897917,0.13872283011354963
0.07426590797569338,0.034042148825618346,0.16911567679334105,0.13802581837016625
0.07355881131116365,0.033632893025827726,0.16770562044041903,0.1373362364668492
0.07286030936807064,0.03322941485551867,0.16631175183177271,0.13692993924222063
0.07217027986619112,0.032831624607089216,0.1649338459597518,0.13675422775097523
0.07148860247001815,0.032439434063088746,0.16357168134619826,0.13657747143162968
0.07081515875499797,0.03205275646994937,0.16222503998227356,0.13639970026090087
0.07014983217440227,0.03167150651221173,0.1608937072693839,0.13622094365450033
0.06949250802682333,0.03129560028723388,0.15957747196118444,0.1360412304777413
0.06884307342427914,0.030924955280374256,0.15827612610664343,0.13586058905589526
0.06820141726091583,0.030559490340639206,0.15698946499413924,0.1356790471843079
0.06756743018229555,0.030199125656784842,0.15571728709657573,0.13549663213827834
0.06694100455525748,0.029843782733864677,0.1544593940174941,0.13531337068271565
0.06632203443834053,0.02949338437021415,0.15321559043816202,0.13512928908157495
0.06571041555275658,0.029147854634862802,0.15198568406561863,0.13494441310708216
0.06510604525390248,0.028807118845365687,0.15076948558166237,0.13475876804875586
0.06450882250340056,0.028471103546045762,0.14956680859275617,0.1345723787222316
0.06391864784165668,0.028139736486639033,0.14837746958083842,0.1343852694778913
0.06333542336092557,0.027812946601334154,0.14720128785501885,0.13419746420931322
0.06275905267887305,0.027490663988198882,0.14603808550414388,0.13400898636153502
0.06218944091262549,0.02717281988898579,0.14488768735021207,0.1338198589391485
