jointHR1,jointHR2,jointHR3,force
6.154362979183777,5.622761714893428,7.7460278506671925,6.044544223255263
5.828569766920567,5.318386261455985,7.3238799897341815,5.714115310928517
5.519715127871044,5.0301125219162754,6.923825672507562,5.4012162848405225
5.226921283268918,4.757095689446707,6.544718569739251,5.104926775987075
4.94935590355055,4.4985351479236355,6.1854717136879955,4.824374564970115
4.6862297557678945,4.253672163028138,5.845054425561068,4.558733066245993
4.436794472765444,4.0217876939281485,5.522489401974778,4.307218943754468
4.200340437819228,3.802200319245877,5.2168499522040594,4.06908985106863
3.976194778762124,3.5942642713430724,4.927257378417308,3.8436422895641273
3.763719465928957,3.3973675732683843,4.653837540172825,3.6302095784455335
3.562309508548137,3.2109302730062135,4.394942059264571,3.4281599307893433
3.3713912444847254,3.034402769946455,4.149643821888352,3.236894630068093
3.1904207185034323,2.8672642287597236,3.91723599704274,3.0558463019090203
3.0188821444701825,2.709021076114056,3.697048393342321,2.8844772761146795
2.856286447147926,2.5592055759074466,3.488445561603394,2.7222780342324673
2.702169879467257,2.4173744789163423,3.2908249956522173,2.5687657382061313
2.556092711365569,2.283107742974326,3.1036154262719027,2.423482835875531
2.417637986490664,2.1560073199980843,2.939059649113796,2.285995739311938
2.2867412105864986,2.035696006370045,2.8007398079481227,2.1558935721857315
2.1787403388917257,1.9218163533693309,2.6685874275820947,2.0529649272636448
2.0755247998842283,1.8140296345153772,2.54233130172479,1.9585535459876102
1.9768856983829353,1.715911163540572,2.424479842959492,1.8683113403834475
1.8826232124213906,1.6250440536780753,2.340699251588414,1.782056413262698
1.7925461999492467,1.5505241937345278,2.282125334684957,1.6996147673167237
1.7064718225673488,1.4822064110227857,2.2310919418017465,1.6208199626782227
1.6263717799327595,1.4168801597222265,2.1841100336597545,1.5455127893139338
1.5502431232975382,1.354415295800665,2.1383085083514026,1.473540953606409
1.477503903753469,1.2946873206461855,2.093649663084025,1.4047587785105724
1.4080051785604286,1.2375771364893797,2.0500972977085503,1.3390269166973283
1.3453802155620704,1.1829708124154616,2.0076166457721625,1.2762120761219753
1.2877544545069033,1.1307593605078443,1.9661743089644852,1.2203973512698174
1.2326764770865677,1.0808385216846061,1.9257381947849697,1.1921613734137702
1.1934421604148433,1.0331085608082675,1.887225529628122,1.1648961495121954
1.163860380509235,0.9874740706674563,1.8509675729288257,1.1385607325392977
1.1351465072265925,0.9438437844464116,1.8155197283821654,1.1131161095153428
1.1072707505873607,0.902130396314887,1.7808598425309692,1.0885251050108948
1.0802044587617399,0.8622503897869573,1.7469664986832851,1.0647522895863328
1.0539200718250554,0.8241238735123908,1.7138189888608646,1.0417638929114421
1.0283910774536884,0.7876744241788578,1.6813972868970293,1.019527721323114
1.0050285066065787,0.7528289362171312,1.6496820226351456,0.9980130795917703
0.9855119991368091,0.7195174780147986,1.6186544571810373,0.9771906966790608
0.9664379920877602,0.6876731543567112,1.5882964591646758,0.9570326552806545
0.9477941568996867,0.6572319748226239,1.5585904819684164,0.9375123249586742
0.9295685819416296,0.6281327278841278,1.5295195418808825,0.9186042986784643
0.9117497564602737,0.6004953358230317,1.5010671971373675,0.9002843325740129
0.8943265551905587,0.5847415951211893,1.4732175278093038,0.8825292887754598
0.8772882235998836,0.5694907401154009,1.445955116506962,0.8653170811407849
0.8606243637389411,0.5547231470745303,1.419265029861082,0.8486266237419462
0.8443249206733949,0.5404200752987599,1.3931328007506185,0.8324377819635341
0.8283801694717189,0.5265636241421124,1.3675444112451831,0.816731326079344
0.8127807027255868,0.5131366922072517,1.3424862762321275,0.8014888871792767
0.7975174185802185,0.5001229386008677,1.3179452276994919,0.7866929153255809
0.7825815092530579,0.4875067461437017,1.2939084996472858,0.7723266398237278
0.7679644500200999,0.47527318643478655,1.2703637136007453,0.7583740314991617
0.7536579886500641,0.46340798667466065,1.2472988647003396,0.7448197668767998
0.7396541352674736,0.4518974981572629,1.2247023083443913,0.7316491941655098
0.7259451526265113,0.4407286663448855,1.2025627473611906,0.7188483009548476
0.7125235467783017,0.4300847910555764,1.1808692196884965,0.7064036835361576
0.6993820581150214,0.42134781621866946,1.159611086539241,0.6943025177646684
0.6865136527749472,0.4128124191711803,1.1387780210331813,0.6825325313835661
0.6739115143932373,0.4044728703278546,1.1183599972750873,0.6710819777350775
0.6615690361838988,0.3963236462384431,1.0983472798609102,0.6599396107875195
0.6494798133390102,0.38835942070541796,1.0787304137941354,0.649094661410909
0.6376376357318747,0.3805750563254371,1.0595002147953188,0.6385368148372443
0.6260364809113477,0.3729655964333424,1.0406477599885031,0.6282561892448569
0.6146705073751305,0.36552625742855627,1.022164378948923,0.618243315409368
0.6035340481103443,0.35825242146478087,1.0040416450970602,0.6084891173667644
0.5926216043902033,0.35113962948486743,0.9862713674247597,0.5989848940369122
0.581927839816078,0.3441835745836608,0.9688455825397123,0.5897223017585057
0.5714475745947082,0.3373800956824933,0.9517565470152005,0.5806933376889761
0.5611757800407535,0.3307251714998388,0.9349967300325601,0.571890324025282
0.5511075732952955,0.32421491480343057,0.9185588063043401,0.5633058930037887
0.5412382122513056,0.31784556692988675,0.9024356492666581,0.5549329726395865
0.5315630906774752,0.3116134925586094,0.8866203245297284,0.5467647731676549
0.5220777335321729,0.3055151747273822,0.8711060835760236,0.5387947741502107
0.512777792459649,0.29954721007774976,0.8558863576959531,0.5310167122164223
0.5036590414609345,0.2937063043188458,0.8409547521513948,0.5234245694024116
0.4947173727322156,0.2879892678989342,0.8263050405578068,0.5160125620611141
0.48594879266376256,0.282393011874456,0.8119311594760484,0.5087751303131464
0.4773494179927927,0.2769145439668971,0.7978272032054079,0.5017069280113003
0.46891547210392537,0.2715509647982919,0.7839874187697015,0.4948028131927023
0.4606432814711599,0.26629946429662543,0.7704062010886391,0.4880578389940095
0.4525292722355624,0.26115731826285515,0.757078088326992,0.48146724500627597
0.4445699669130959,0.25612188509168154,0.7439977574144103,0.47502644904733005
0.43676198122726506,0.25119060263860116,0.7311600197290288,0.46873103933063476
0.42910202106147133,0.24636098522614258,0.7185598169383038,0.46257676701068956
0.42158687952619234,0.24163062078256048,0.706192216990785,0.45655953908604885
0.4142134341363046,0.23699716810658145,0.6940524102528,0.4506754116420083
0.40697864409406875,0.23245835425213512,0.6821357057842738,0.4449205834159272
0.39987954767348427,0.22801197202729573,0.6704375277481585,0.4392913896690285
0.392913259701903,0.22365587760196082,0.6589534119481604,0.43378429634934446
0.38607696913496503,0.21938798821905892,0.6476790024896955,0.42839589453126503
0.3793679367210845,0.21520628000434416,0.6366100485592083,0.4231228951178826
0.3727834927518745,0.21110878587008242,0.6257424013171728,0.4179621237930386
0.36632103489505036,0.20709359350816658,0.6150720109003249,0.4129105162106456
0.35997802610649743,0.20315884346842483,0.6045949235288304,0.4079651134094888
0.35375199261832846,0.19930272731809173,0.5943072787142842,0.4031230574423179
0.34764052199988843,0.19552348587862134,0.5842053065646085,0.3983815872086086
0.34164126128879396,0.19181940753619742,0.5742853251820694,0.3937380344809134
0.3357519151892146,0.18818882662249914,0.5645437381508056,0.389189820115236
0.32997024433472194,0.18463012186242234,0.5549770321103895,0.3847344504363504
0.32429406361314334,0.18114171488565112,0.5455817744121065,0.3803695137894465
0.3187212405509647,0.17772206879910046,0.5363546108547659,0.3760926772499222
0.3132496937549291,0.17436968681742004,0.5272922634969728,0.371901683483559
0.3078773914085764,0.17108311094887008,0.5183915285429519,0.3677943477497079
0.30260234982156253,0.16786092073402792,0.5096492742990968,0.3637685550404915
0.2974226320296877,0.1647017320348958,0.5010624391985561,0.3598222573493776
0.2923363464436483,0.1616041958721105,0.4926280298912731,0.35595347106281805
0.28734164554461,0.15856699730806123,0.48434311939699914,0.35216027446896747
0.28243672462477815,0.15558885437383085,0.4762048453188976,0.3484408053777937
0.2776198205712179,0.15266851703797868,0.46821040811546855,0.3447932588471826
0.2728892106912477,0.14980476621528438,0.4603570694285952,0.3412158850099123
0.26824321157779935,0.1469964128136486,0.4526421504656182,0.337706986996629
0.2636801780132054,0.1442422968174556,0.44506303043342355,0.3342649189501978
0.25919850190993576,0.14154128640576358,0.43761714502261206,0.33088808412704357
0.2547966112868681,0.13889227710378704,0.43030198493989236,0.32757493308130664
0.2504729692797342,0.13629419096619244,0.42311509448691953,0.32432396192785506
0.24622607318443984,0.13374597579081182,0.4160540701838731,0.3211337106803909
0.2420544535320091,0.13124660436144076,0.40911655943613434,0.31800276166107344
0.23795667319395597,0.128795073718454,0.40230025924248514,0.3149297379782678
0.23393132651693432,0.126390404456028,0.3956029149433209,0.31191330206918877
0.2299770384855629,0.12403164004482037,0.389022319007434,0.3089521543043778
0.22609246391237076,0.12171784617901715,0.38255630985595346,0.306045031651097
0.2222762866538459,0.11944811014669421,0.37620277072213404,0.3031907063928758
0.21852721885161686,0.11722154022250819,0.3713370964078626,0.30038798490257734
0.21484400019783179,0.11503726508176737,0.36882162944701147,0.2976357064664853
0.21122539722383976,0.11289443323497705,0.3663397765892362,0.2949327421570345
0.20767020261131447,0.11079221248200533,0.3638905773219203,0.2922779937519276
0.2041772345249958,0.10872978938504585,0.3614731156943769,0.28967039269748907
0.20074533596625616,0.10670636875959838,0.3590865179879623,0.28710889911421655
0.19737337414673256,0.10472117318272256,0.35672995050904865,0.2845925008425866
0.19406023988129442,0.10277344251785403,0.3544026174984216,0.2821202125272722
0.19080484699964606,0.10086243345550583,0.3521037591510039,0.2796910747380131
0.18760613177589208,0.09898741906921282,0.3498326497401292,0.2773041531254732
0.18446305237541902,0.09714768838609644,0.3475885958408804,0.2749585376104954
0.18137458831847436,0.09534254597146896,0.34537093464730684,0.272653341605244
0.17833973995984592,0.0935713115269119,0.3431790323785888,0.27038770126479944
0.17535752798406995,0.09183331950129492,0.34101228276948925,0.268160774767836
0.17242699291561955,0.09012791871422665,0.33887010564066644,0.2659717416250848
0.1695471946435445,0.08845447199144407,0.33675194554465615,0.26381980201434174
0.16671721196005537,0.08683763813208245,0.3346572704835469,0.2617041761408457
0.1639361421125658,0.08529550018369048,0.3325855706945833,0.25962410362190225
0.16120310036872307,0.08387470025174881,0.3305363575001279,0.25757884289469013
0.15851721959397913,0.08250390079258041,0.32850916221859405,0.2555676706462306
0.15587764984126776,0.08115627539522119,0.32650353513314645,0.25358988126455523
0.15328355795237358,0.07983140519936138,0.3245190445151245,0.2516447863101495
0.15073412717059245,0.07852888022676763,0.32255527569931286,0.24973171400679672
0.14822855676429983,0.07724829912858078,0.32061183020832185,0.24785000875098395
0.14576606166105713,0.0759892689424615,0.31868832492349575,0.2459990306390784
0.14395029403873483,0.07475140485911258,0.3167843912998891,0.24417815501151255
0.1428801186704598,0.07353432999775045,0.31489967462299595,0.24238677201325665
0.14182392158185458,0.07233767519009626,0.3130338333050158,0.240624286169891
0.1407813996718888,0.07116107877250111,0.3111865382185812,0.23889011597862153
0.13975226067243413,0.0700041863858224,0.3093574720659591,0.2371836935136129
0.13873622264384117,0.06886665078269516,0.3075463287818547,0.23550446404504305
0.13773301349605233,0.06774813164186233,0.30575281296804024,0.23385188567131132
0.1367423705339315,0.06664829538923844,0.30397663935812314,0.23222542896385742
0.1357640400255618,0.06556681502540262,0.3022175323108607,0.23062457662407448
0.13479777679232346,0.06450336995922668,0.30047522533050564,0.22904882315182287
0.13384334381963037,0.0634576458473669,0.29874946061275076,0.22749767452507472
0.1329005118872572,0.0624293344393545,0.2970399886149184,0.2259706478902397
0.1319690592182487,0.06141813342803404,0.2953465676491003,0.22446727126274318
0.13104877114545022,0.06042374630511438,0.29366896349703686,0.22298708323744923
0.13013943979475412,0.059445882221607405,0.29200694904557545,0.2215296327085368
0.12924086378419763,0.058484255852940925,0.29036030394161716,0.22009447859845613
0.12835284793809693,0.057538587268535335,0.2887288142655091,0.21868118959561067
0.12747520301544224,0.056608601805663517,0.2871122722219088,0.2172893439004233
0.1266077454518204,0.05569402994739692,0.2855104758471805,0.21591852897946195
0.1257502971141668,0.05479460720447005,0.2839232287324467,0.21456834132731548
0.12490268506768865,0.053910074000896424,0.28235033976146173,0.21323838623592142
0.12406474135433115,0.05304017556317464,0.28079162286250825,0.21192827757106425
0.12323630278219505,0.052184661812938016,0.2792468967735757,0.21063763755577009
0.12241721072534112,0.05134328726289927,0.2777159848201016,0.20936609656034239
0.12160731093344873,0.050515810915960024,0.276198714704613,0.20811329289878686
0.12080645335082191,0.04970199616735216,0.2746949183076217,0.2068788726313919
0.12001449194426311,0.04890161070968535,0.27320443149917417,0.20566248937323522
0.11923128453936066,0.048114426440787894,0.2717270939604848,0.20446380410840126
0.11845669266475584,0.04734021937422639,0.2702627490151075,0.20328248500970006
0.1176905814039842,0.04657876955239726,0.26881124346913654,0.20211820726368984
0.11693281925449978,0.04582986096208985,0.2673724274599507,0.20097065290081284
0.11618327799351663,0.04509328145242353,0.2659461543130348,0.19983951063046076
0.11544183255031754,0.04436882265506703,0.26453228040645205,0.19872447568079646
0.11470836088470016,0.043656279906651996,0.26313066504254845,0.19762524964316378
0.11398274387124657,0.04295545217329977,0.2617411703264978,0.19654154032092472
0.11326486518911866,0.04226614197717349,0.260363661051324,0.195473061582571
0.11255461121709781,0.04158815532499105,0.2589980045890423,0.19441953321896197
0.1118518709336011,0.040921301638416785,0.25764407078759377,0.19338068080454732
0.1111565358214211,0.04026539368626825,0.25630173187325433,0.1923562355624393
0.11046849977694834,0.03962024751846893,0.2549708623582274,0.19134593423320448
0.10978765902364807,0.03898568240168532,0.2536513389531301,0.19034951894724902
0.10911391202957654,0.03836152075658794,0.2523430404841147,0.1893667371006792
0.10844715942873051,0.03774758809668144,0.25104584781436734,0.18839734123452082
0.10778730394603592,0.03714371296864072,0.24975964376974868,0.18744108891718758
0.10713425032579177,0.03654972689411318,0.24848431306834784,0.1864977426300919
0.10648790526339419,0.035965464312926465,0.24721974225373966,0.18556706965629718
0.10584817734017471,0.035390762527657826,0.24596581963173647,0.18464884197211137
0.1052149769611957,0.03482546164952094,0.24472243521045067,0.18374283614153003
0.1045882162958543,0.034269404545524074,0.24348948064347886,0.18284883321343737
0.10396780922115273,0.03372243678685871,0.2422668491760427,0.18196661862147684
0.10335367126750167,0.033184406598477545,0.24105443559391948,0.1810959820865105
0.1027457195669289,0.03265516480982744,0.23985213617501144,0.18023671752158263
0.10214387280357301,0.03213456480669463,0.23865984864340573,0.1793886229393145
0.10154805116634802,0.03162246248413236,0.23747747212579307,0.17855150036165146
0.1009581763036701,0.031118716200433827,0.23630490711010643,0.17772515573189324
0.10037417128014348,0.030623186732121943,0.23514205540626576,0.1769093988289366
0.09979596053510831,0.030135737229921022,0.23398882010890443,0.17610404318366563
0.0992234698429581,0.02965623317568289,0.23284510556197513,0.1753089059974222
0.09865662627513827,0.02918454234023915,0.23171081732512344,0.17452380806249845
0.09809535816374337,0.02872053474215186,0.2305858621417356,0.1737485736845888
0.09753959506663373,0.028264082607338148,0.2294701479085668,0.172983030607145
0.09698926773399646,0.02781506032953962,0.22836358364685894,0.17222700993757858
0.09644430807628046,0.027373344431616098,0.22726607947486954,0.1714803460752576
0.09590464913343666,0.026938813527641714,0.22617754658172795,0.17074287664124535
0.09537022504540182,0.026511348285775393,0.2250978972025488,0.1700144424097311
0.09484097102376304,0.026090831391891278,0.22402704459473033,0.1692948872411058
0.09431682332454666,0.02567714751394312,0.2229649030153691,0.16858405801663506
0.09379771922207719,0.025270183267045776,0.22191138769973429,0.16788180457468513
0.09328359698385363,0.02486982717925268,0.22086641484073577,0.1671879796484585
0.09277439584639507,0.024475969658016128,0.21982990156933346,0.16650243880519683
0.09227005599200772,0.024088502957303026,0.218801765935835,0.16582504038681156
0.09177051852643098,0.023707321145361115,0.21778192689202958,0.16515564545190223
0.09127572545731893,0.02333232007310848,0.2167703042741136,0.16449411771912492
0.09078561967351867,0.022963397343138348,0.21576681878635973,0.16384032351187416
0.0903001449251063,0.02260045227931784,0.21477139198549167,0.16319413170424352
0.08981924580414702,0.022243385896972945,0.21378394626572184,0.16255541366822973
0.0893428677261428,0.021892100873637133,0.21280440484441443,0.16192404322214715
0.08887095691213726,0.021546501520359196,0.21183269174833996,0.16129989658022206
0.08840346037144614,0.021344491555506107,0.21086873180048604,0.16068285230333315
0.08794032588498485,0.021266672882929494,0.20991245060739527,0.16007279125087104
0.08748150198916516,0.021189597862388387,0.20896377454699766,0.15946959653368437
0.08702693796033462,0.02111325913835327,0.2080226307569093,0.15887315346808795
0.08657658379973526,0.021037649472468112,0.20708894712317627,0.15828334953090228
0.08613039021895558,0.02096276173772882,0.20616265226942843,0.15770007431549984
0.08568830862585575,0.02088858891303702,0.20524367554643264,0.1571232194888321
0.08525029111094373,0.02081512407810282,0.2043319470220093,0.15655267874941184
0.0848162904341816,0.020742360408679494,0.20342739747130323,0.155988347786227
0.08438626001220417,0.020670291172109057,0.2025299583673803,0.15543012423856273
0.08396015390593076,0.02059890972315903,0.20163956187213716,0.15487790765670864
0.08353792680855276,0.020528209500135675,0.20075614082750293,0.1543315994635293
0.08311953403388178,0.020458184021253434,0.19987962874691667,0.15379110291687612
0.08270493150504088,0.0203888268812491,0.19900995980706715,0.15325632307282047
0.0822940757434858,0.02032013174822178,0.19814706883987943,0.15272716674968817
0.08188692385834101,0.020252092360688034,0.19729089132472954,0.15220354249287413
0.08148343353603804,0.020184702524837395,0.19644136338088525,0.1516853605404198
0.08108356303024222,0.020117956111975976,0.19559842176014763,0.151172532789334
0.08068727115205715,0.020051847056147043,0.19476200383969133,0.15066497276263954
0.08029451726049414,0.019986369351916333,0.1939320476150901,0.15016259557712802
0.07990526125319691,0.01992151705231404,0.19310849169351307,0.14966531791180582
0.07951946355740974,0.019857284266920128,0.19229127528709067,0.14917305797701463
0.07913708512118084,0.019793665160087737,0.19148033820643273,0.1486857354842112
0.07875808740479001,0.019730653949291965,0.19067562085429546,0.14820327161638921
0.07838243237239284,0.01966824490359953,0.18987706421938633,0.1477255889991304
0.0780100824838722,0.01960643234224768,0.1890846098703034,0.14725261167226716
0.07764100068688956,0.01954521063332948,0.1882981999495963,0.14678426506214554
0.07727515040912764,0.0194845741925741,0.18751777716794726,0.14632047595447173
0.07691249555071805,0.019424517482219628,0.18674328479846292,0.14586117246773075
