jointHR1,jointHR2,jointHR3,force
6.464941722275973,5.301328977083574,7.783370540351555,6.150612607318136
6.10315460726478,5.010370063065833,7.340584930296685,5.808375406250125
5.76093844914382,4.7350558521780375,6.9218643751553355,5.484624385037657
5.437246576510928,4.474551484292776,6.525919799882251,5.17837133431869
5.131088064504903,4.228066528294298,6.151530825046119,4.888680670237581
4.841524770277238,3.9948526201294783,5.797542112956466,4.6146666359974855
4.5676685260191325,3.774201226374389,5.4628599079963545,4.355490652140281
4.308678481172258,3.5654415266476436,5.14644876084162,4.110358807651626
4.063758585896533,3.3679384085559203,4.8473284267958565,3.878519484408438
3.8321552082893056,3.1810905691926568,4.564570928989249,3.6592611078837987
3.6131548782490785,3.0043287175284408,4.297297777681046,3.4519100174005195
3.406082151254503,2.8371138723324987,4.044677337370816,3.255828449581167
3.2102975856868987,2.6789357505494302,3.8067367469749565,3.0704126289797857
3.025195827663049,2.529311241325007,3.584424357055627,2.907747149657568
2.8502037976655807,2.387782961130235,3.4014322628652587,2.790869429057559
2.684778973561766,2.2729842821210373,3.2359371024544084,2.679194342752772
2.5284077648889203,2.1672344668546457,3.078566633930302,2.5724920052707314
2.380603973556726,2.066282393284344,2.9768156765379685,2.470542661246446
2.2409073363745113,1.9699125278286334,2.886149108297041,2.373136239434837
2.1088821450553654,1.8779189874489461,2.7981054353809167,2.280071926352588
1.9841159395801289,1.7901051079770347,2.7126093797398383,2.191157758685489
1.866218271022939,1.706283031747086,2.629587819376924,2.1062102336354447
1.7987406305762392,1.6262733136691938,2.548969726578501,2.0250539364176166
1.744840286779646,1.5499045449194664,2.4706861079183717,1.9475211841529303
1.6925089521328391,1.4770129934589191,2.3946699459848,1.8734516854343897
1.6417014006395132,1.4074422606285324,2.338373523102875,1.8026922148774027
1.592373703306824,1.3410429531015389,2.2862733905436725,1.73509630199467
1.544483191023869,1.2776723695061358,2.2352834108686594,1.6705239337652154
1.5067543368806686,1.2171942010625585,2.1853793111016264,1.608841270294882
1.474003760420949,1.1594782456077697,2.1365373882101832,1.5499203729921294
1.4419491982020167,1.1044001344090737,2.088734493777044,1.4936389447083471
1.410575390400726,1.0518410711947328,2.0419480191730215,1.439880081316109
1.3798674387794871,1.0154488836269402,1.996155881211693,1.3885320342219885
1.3498107967907051,0.9866263003810845,1.9570639040446656,1.3394879833327047
1.3203912600124332,0.9586308429906054,1.9196355067184705,1.292645820014537
1.2915949569017475,0.9314388208241215,1.8830268937899268,1.2479079396062005
1.2634083398529952,0.9050272211082073,1.847217333057379,1.205181043064741
1.2358181765486251,0.8793736895170035,1.8121866945873935,1.1643759473424729
1.208811541590935,0.8544565113192106,1.7779154309929504,1.125407404110734
1.1823758084035454,0.8302545930663672,1.744384558420574,1.08819392646308
1.1564986413919838,0.8067474448067924,1.7115756382191527,1.0526576232467473
1.1311679883531913,0.7839151628100276,1.6794707592642777,1.018724040686656
1.106372073124279,0.7617384127870417,1.6480525209129953,0.9863220109809988
1.0820993884612624,0.7401984135919122,1.6173040165648698,0.955383507561587
1.0583386891389421,0.7192769213910906,1.5872088178062231,0.9258435067256291
1.0350789852634827,0.6989562142867778,1.557750959115343,0.8976398553585271
1.0123095357896366,0.6792190773813214,1.5289149231073402,0.8707131444796141
0.9900198422348987,0.660048788269926,1.50068562629819,0.8450065883545561
0.9681996425832354,0.6414291029493422,1.473048405368301,0.820465908929417
0.9468389053713488,0.6233442421305482,1.4459890039067498,0.7970392253521764
0.925927823950747,0.6057788779437974,1.4194935596180585,0.7746769483577816
0.9054568109191898,0.5887181210247325,1.3935485919741186,0.7536568776782497
0.8854164927153523,0.5759569720095229,1.3681409902945543,0.7374258657392426
0.8657977043708216,0.5644141177563234,1.3432580022394758,0.7215340917971926
0.8465914844137924,0.553112540695197,1.3188872226992112,0.7059743625915724
0.8277890699190666,0.5420470575427189,1.2950165830662173,0.6907396445329684
0.8093818916991979,0.5312126026315899,1.2716343408749395,0.6758230597862434
0.7917725767224616,0.5206042249375015,1.2487290697959719,0.6612178824679186
0.7765069953036601,0.5102170851954192,1.2262896499713816,0.6469175349536376
0.7615606533441415,0.5000464531019871,1.2043052586785983,0.63291558429177
0.7469266848011346,0.490087704600903,1.1827653613107478,0.6192057387193689
0.7325983754280004,0.4803363192482276,1.1616597026617868,0.6057818442768653
0.7185691592676191,0.47078787765476904,1.1409782985052557,0.5926378815180372
0.7048326152330884,0.46143805900274437,1.1207114274558954,0.5797679623119388
0.6913824637732935,0.4522826386340987,1.1008496231037945,0.5671663267336079
0.6782125636209698,0.4433174857079335,1.081383666411135,0.5548273400405149
0.6653169086209734,0.43453856092463006,1.0623045783619902,0.5427454897318307
0.6526896246365387,0.4259419143143276,1.0436036128559967,0.5309153826877229
0.6403249665313797,0.41752368308754784,1.0252722498370759,0.5193317423859971
0.6282173152255573,0.4092800895458233,1.007302188648724,0.5079894061935158
0.6163611748231023,0.4012074390502802,0.9896853416077118,0.49688332272992247
0.6047511698094479,0.3933021180462244,0.9724138277883541,0.4860085493013159
0.5933820423167873,0.38556059214184346,0.9554799670098003,0.47536024940159205
0.5822486494555286,0.37797940423921983,0.9388762740191002,0.467333233272805
0.5713459607100795,0.37055517271592864,0.9225954528630608,0.4601339182723129
0.5606690553972469,0.363284589655555,0.9066303914421859,0.45327317986621096
0.5502131201855901,0.35616441912553387,0.8909741562402469,0.4467357352779325
0.5399734466741163,0.3491914955007873,0.8756199872232658,0.44050698003639593
0.529945429028758,0.34236272183167726,0.8605612929019433,0.4345729580436627
0.5201245616751169,0.33567506825487103,0.8457916455517784,0.42892033296096
0.5105064370460065,0.32912557044575363,0.8313047765853501,0.42353636085503343
0.5010867433823677,0.32271132811107883,0.8170945720714338,0.41840886404935435
0.4918612625861757,0.31642950352061394,0.8031550683958328,0.41352620612714014
0.48282586812399686,0.3102773200765564,0.7894804480589928,0.40887726803548996
0.47397652297989334,0.30425206091956947,0.7760650356056493,0.4044514252421601
0.46530927765641095,0.29835106757031604,0.7629032936819422,0.4002385258986439
0.45682026822242505,0.29257173860541097,0.7499898192155974,0.3962288699652556
0.4485057144066511,0.2869115283667586,0.7373193397149396,0.3924131892558718
0.44036191773566413,0.2813679457032783,0.7248867096826574,0.38878262836184246
0.43238525971530206,0.27593855274405144,0.7126869071403952,0.3853287264163699
0.4245722000543622,0.27062096370196564,0.700715030260388,0.38204339966235684
0.41691927492952874,0.26541284370696516,0.688966294100497,0.3789189247883489
0.4094230952905019,0.2603119076680417,0.6774360274391393,0.37594792299876106
0.4020803452043241,0.2553159191631367,0.6661196697067284,0.3760005228057677
0.3948877802379326,0.2504226893561583,0.6550127680103703,0.37770474604143867
0.3878422258779892,0.2456300759403277,0.6441109742486815,0.3792885937075945
0.3809405759870674,0.24093598210712686,0.6334100423137023,0.3807579888114656
0.3741797912953009,0.23633835554010885,0.6229058253769919,0.382118583756619
0.3675568979266245,0.23183518743288678,0.6125942732571044,0.3833757724184679
0.3610689859587587,0.2274245115306256,0.602471429865729,0.3845347016854571
0.3547132080161148,0.2231044031943875,0.5925334307299015,0.3856002824894872
0.34848677789481886,0.2188729784877057,0.5827765005877583,0.3865772003481125
0.3423869692190755,0.21472839328477278,0.5731969510554193,0.38746992544004555
0.33641111412811,0.21066884239967176,0.563791178362659,0.3882827222345553
0.3305566019929527,0.20669255873606396,0.5545556611551117,0.38901965869444255
0.32482087816234617,0.2027978124568025,0.5454869583608457,0.38968461507140495
0.31920144273707196,0.1989829101729288,0.5365817071191961,0.3902812923117772
0.3136958493720199,0.19524619415154498,0.5278366207698515,0.3908132200898383
0.3083017041053343,0.19158604154205794,0.519248486900235,0.3912837644851208
0.30301666421398904,0.18800086362032375,0.5108141654493026,0.3916961353194359
0.2978384370951655,0.18448910505021565,0.5025305868659393,0.3920533931686284
0.29276477917281774,0.18104924316217064,0.49439475032021574,0.3923584560634239
0.2877934948288291,0.1776797872482706,0.48640372196579595,0.3926141058930872
0.2829224353581778,0.1743792778734431,0.4785546332518853,0.3928229945250178
0.27814949794754523,0.17114628620235872,0.47084467928313267,0.3929876496528173
0.27347262467681394,0.16797941334163624,0.4632711172259736,0.39311048038482344
0.26888980154291825,0.16487728969696258,0.4558312647599456,0.3931937825845675
0.26439905750552195,0.16183857434475257,0.4485224985725642,0.39323974397411154
0.2599984635540124,0.1588619544179921,0.4413422528963893,0.39325044901074035
0.25568613179531297,0.1559461445058955,0.4342880180869604,0.3932278835470149
0.2514602145620275,0.15308988606705343,0.4273573392403389,0.39317393928375943
0.24731890354044367,0.150291946855722,0.42054781484900605,0.3930904180251328
0.24326042891793398,0.1475511203609412,0.4138570954949501,0.3929790357445223
0.23928305854930237,0.14486622525816029,0.4072828825787751,0.39284142646962683
0.23538509714164213,0.14223610487306793,0.40082292708373957,0.39267914599471243
0.231564885457269,0.13965962665733844,0.3944750283736356,0.39249367542768643
0.22782079953432233,0.13713568167598733,0.3882370330234901,0.3922864245792852
0.22415124992461732,0.13466318410607925,0.3821068336820752,0.39205873520136003
0.2205546809483585,0.13224107074649794,0.37608236796526495,0.3918118840809306
0.2170295699653218,0.12986830053852005,0.3701616173793041,0.3915470859963839
0.21357442666213206,0.1275438540969398,0.36434260627308723,0.39126549654191944
0.21018779235526303,0.12526673325148774,0.35862340081856847,0.39096821482605804
0.20686823930940273,0.12303596059829958,0.3530021080184633,0.39065628604980207
0.20361437007083238,0.120850579061207,0.3474768747404262,0.3903307039697512
0.2004248168154763,0.1187096514626067,0.34204588677690695,0.38999241325128264
0.19729824071128987,0.11661226010369674,0.3367073679299326,0.38964231171665187
0.19423333129465542,0.11455750635385054,0.3314595791200696,0.3892812524926641
0.19122880586047453,0.11254451024892387,0.32630081751885043,0.38891004606236734
0.18828340886563932,0.1105724100982809,0.3212294157039819,0.3885294622250146
0.18539591134558253,0.10864036210034544,0.31624374083665674,0.38814023196835545
0.18256511034361173,0.10674753996647224,0.31134219386032935,0.3877430492571444
0.179789828352736,0.10489313455295524,0.3068367516042305,0.38733857274157335
0.17706891276970443,0.10307635350097832,0.3027504220165378,0.3869274273891785
0.17440123536098057,0.10129642088433766,0.29874277053914255,0.3865102060436113
0.1717856917403856,0.09955257686474217,0.29481216064174176,0.38608747091351936
0.1692212008581434,0.09784407735454037,0.2909569905002576,0.3856597549946288
0.16670670450107872,0.09617019368668456,0.2871756922520554,0.38522756342799547
0.16424116680370876,0.0945302122917846,0.28346673126739574,0.3847913747972561
0.1618235737699928,0.09292343438208372,0.27982860543676313,0.38435164236758
0.15945293280549422,0.09134917564219835,0.2762598444737139,0.38390879526891486
0.15712827225972642,0.08980676592648018,0.27275900923289687,0.38346323962599405
0.15484864097845275,0.08829554896283653,0.269324691042905,0.383015359637471
0.15261310786571874,0.08681488206288135,0.26595551105363513,0.3825655186064376
0.1504207614553998,0.08536413583826119,0.262650119597829,0.3821140599244893
0.1482707094920518,0.08394269392303055,0.2594071955664805,0.381661308011395
0.14616207852085772,0.082549952701932,0.2562254457977984,0.38120756921234944
0.1440940134864674,0.0811853210444562,0.25310360447943014,0.3807531326546916
0.14206567734053488,0.07984822004455283,0.2500404325636494,0.3802982710658894
0.14007625065775614,0.07853808276586749,0.24703471719521297,0.3798432415545163
0.13812493126022335,0.07725435399237957,0.24408527115162282,0.3793882863558632
0.13621093384990746,0.07599648998432662,0.24119093229550348,0.3789336335437611
0.1343334896490917,0.07476395823929916,0.23835056303883206,0.37847949771011835
0.13249184604857783,0.07355623725838667,0.2355630498187642,0.3780260806136081
0.13068526626349652,0.0723728163172701,0.23282730258479356,0.3775735717988832
0.12891302899654872,0.07121319524215097,0.2301422542969942,0.3771221491876282
0.12717442810852037,0.07007688419040892,0.22750686043510782,0.37667197964270516
0.1254687722959047,0.0689634034358918,0.2249200985182327,0.3762232195065949
0.12379538477547708,0.06787228315872429,0.22238096763488246,0.37577601511527425
0.12215360297567224,0.06680306323955398,0.21988848798318217,0.3753305032886338
0.12054277823460807,0.06575529305812211,0.21744170042098698,0.3748868117984744
0.11896227550461652,0.06472853129607914,0.21503966602569968,0.374445059815089
0.11741147306313404,0.06372234574394109,0.2126814656635725,0.37400535833338644
0.11588976222981279,0.06273631311210737,0.21036619956829816,0.3735678105794673
0.11439654708971847,0.06177001884584443,0.2080929869286594,0.37313251239853096
0.11293124422247686,0.06082305694415613,0.2058609654850716,0.37269955262494425
0.11149328243724482,0.05989502978245376,0.2036692911348048,0.3722690134352732
0.11008210251337086,0.05898554793894217,0.2015171375456879,0.37184097068503796
0.10869715694662768,0.05809423002464553,0.19940369577813177,0.37141549422992337
0.10733790970088969,0.05722070251699718,0.19732817391527546,0.3709926482321384
0.10600383596514057,0.05636459959690676,0.19528979670107205,0.37057249145258875
0.10469442191569023,0.05552556298924194,0.1932878051861593,0.37015507752950794
0.10340916448349102,0.05470324180664543,0.19132145638132814,0.3697404552441427
0.10214757112644207,0.053897292396616,0.18939002291843177,0.3693286687740819
0.1009091596065661,0.053107378191787014,0.18749279271857366,0.3689197579347826
0.09969345777196531,0.05233316956332901,0.18562906866741113,0.36851375840982215
0.09850000334343895,0.05157434367741942,0.1837981682974208,0.3681107019703853
0.09732834370567112,0.05083058435469745,0.1819994234769795,0.36771061668447
0.09617803570288225,0.05010158193266234,0.18023218010610687,0.36731352711627385
0.09504864543885205,0.04938703313093307,0.1784957978187245,0.3669194545162082
0.09393974808121736,0.048686640919319735,0.17678964969129551,0.36652841700195615
0.09285092766995129,0.04800011438864282,0.17511312195770157,0.3661404297309836
0.09178177692993306,0.04732716862424535,0.17346561373022062,0.36575550506488796
0.09073189708752166,0.046667524582134856,0.17184653672647698,0.36537365272595235
0.08970089769104445,0.04602090896770805,0.17025531500223767,0.3649948799462591
0.08868839643511561,0.04538705411699384,0.16869138468990874,0.36461919160969947
0.0876940189887041,0.04476569788037155,0.16715419374264084,0.36424659038719975
0.08671739882686708,0.044156583508702996,0.16564320168389157,0.3638770768654751
0.0857581770660712,0.043559459541833045,0.16415787936234216,0.363510649669599
0.08481600230302339,0.04297407969940803,0.16269770871205202,0.36314730557967434
0.08389053045693645,0.04240020277396028,0.16126218251773206,0.3627870396418733
0.08298142461515179,0.04183759252621444,0.1598508041850346,0.36242984527409894
0.0820883548820529,0.041286017582567,0.1584630875157409,0.36207571436651864
0.08121099823119216,0.04074525133469409,0.1570985564877445,0.3617246373771994
0.08034903836056617,0.04021507184124107,0.1557567450397399,0.3613766034230683
0.07950216555096756,0.03969526173155291,0.15443719686048918,0.36103160036641635
0.07867007652735358,0.039185608111400594,0.1531394651825908,0.36068961489714346
0.07785247432315756,0.03868590247066239,0.15186311258064333,0.36035063261094336
0.07704906814748824,0.0381959405929172,0.1506077107737085,0.36001463808361467
0.0762595732551486,0.03771552246691423,0.14937284043198273,0.35968161494167283
0.0754837108194173,0.03724445219987382,0.1481580909875928,0.35935154592943763
0.07472120780753227,0.03678253793258646,0.14696306044941387,0.3590244129727529
0.0739717968588175,0.03632959175626849,0.14578735522183606,0.35870019723949964
0.07323521616539636,0.03588542963114105,0.1446305899273843,0.3583788791970446
0.0725112093554372,0.03544987130668953,0.1434923872331153,0.3580604386667692
0.07179952537887646,0.035022740243580985,0.14237237768071132,0.3577448548758152
0.07109991839556407,0.03460386353719114,0.1412701995201826,0.3574321065061733
0.07041214766578135,0.034193071842714584,0.14018549854711027,0.3571221717412363
0.06973597744308135,0.03379019930182536,0.1391179279433521,0.35681502830994094
0.06907117686939779,0.033395083470852405,0.13806714812112708,0.3565106535286059
0.06841751987237865,0.033007565250441684,0.1370328265704226,0.356209024340572
0.06777478506489348,0.03262748881666977,0.1360146377096434,0.35591011735375433
0.06714275564667016,0.03225470155358334,0.13501226273942235,0.35561390887619393
0.06652121930801208,0.031889053987133154,0.134025389499552,0.3553203749497138
0.06590996813555788,0.03153039972046823,0.13305371232894503,0.355029491381758
0.06530879852002935,0.031178595370574214,0.13209693192857386,0.35474123377550804
0.06471751106593782,0.030833500506212252,0.1311547552273118,0.3544555775583502
0.06413591050319623,0.030494977587145145,0.13022689525063202,0.35417249800877915
0.06356380560060215,0.03016289190461685,0.12931307099208267,0.3538919702818041
0.06300100908115075,0.029837111523059123,0.12841300728749694,0.3536139694329382
0.062447337539136005,0.029517507223002504,0.12752643469187253,0.353338470440825
0.06190261135900693,0.029203952445165604,0.12665308935884934,0.3530654482285842
0.06136665463593621,0.02889632323569713,0.12579271292275918,0.3527948776839209
0.06083929509806679,0.028594498192549556,0.12494505238316744,0.3525267336780701
0.06032036403040347,0.028298358412956248,0.12410985999186486,0.35226099108362596
0.059809696200307905,0.02800778744199517,0.12328689314225216,0.3519976247913127
0.05930712978456998,0.027722671222209727,0.12247591426106896,0.3517366097257435
0.05881250629801682,0.027442898044271136,0.12167669070242271,0.35147792086022533
0.05858473098892403,0.027168358498657286,0.12088899464405412,0.3512215332306452
0.058438519488485496,0.026898945428328158,0.12011260298580395,0.35096742194849184
0.05829431181608752,0.02663455388237379,0.11934729725023008,0.3507155622130498
0.05815204345092073,0.026375081070623585,0.11859286348532927,0.3504659293228082
0.05801165195134911,0.026120426319185208,0.11784909216931583,0.35021849868612254
0.05787307689141202,0.02587049102690253,0.11711577811741591,0.3499732458311676
0.057736259799203715,0.025625178622709188,0.11639272039064275,0.3497301464152158
0.05760114409707384,0.025384394523863096,0.11567972220648559,0.3494891762332719
0.05746767504359862,0.025148046095039844,0.11497659085150791,0.3492503112261027
0.05733579967726915,0.024916042608266187,0.1142831375957769,0.34901352748768644
0.05720546676184851,0.024688295203685207,0.11359917760911631,0.3487788012721108
0.057076626733347624,0.024464716851121504,0.11292452987912283,0.3485461089999553
0.05694923164857463,0.02424522231244397,0.11225901713091702,0.3483154272641734
0.05682323513521004,0.024029728104701498,0.11160246574859656,0.3480867328355063
0.056698592343365106,0.02381815246401564,0.11095470569834043,0.3478600026674542
0.0565752598985792,0.023610415310220012,0.110315570453146,0.3476352139008223
0.05645319585621428,0.023406438212226988,0.10968489691915373,0.3474123438678661
0.05633235965720634,0.023206144354101843,0.10906252536353178,0.3471913700960614
0.05621271208513395,0.023009458501844438,0.10844829934387756,0.3469722703115077
0.05609421522456537,0.022816306970847244,0.1078420656391188,0.3467550224419985
