jointMR1,jointMR2,jointMR3,force
6.360671532662653,5.520820271024688,7.9463851771682155,6.098591370509523
6.009270598137011,5.218287481063226,7.501188426751414,5.7633499686964305
5.6767102427200715,4.931927679777374,7.079964422246093,5.446073627088348
5.3619887152322425,4.660881946072206,6.681436736073014,5.145807105270274
5.064157377351387,4.404336877087838,6.304396652029089,4.8616458137871925
4.782317890599644,4.169937660437141,5.947699578358982,4.592733131368638
4.515619552248563,3.959955208622435,5.610261650731128,4.3382578641818705
4.263256772260549,3.7603866098463103,5.291056515066542,4.097451839596225
4.024466683801784,3.570717509825894,4.989112280700745,3.8695876273389
3.7985268802568557,3.390458925830812,4.703508634862956,3.6539763812994823
3.5847532720494324,3.2191459957599577,4.433374109933837,3.4499657955971057
3.3824980569277576,3.056336788882867,4.177883495395015,3.2569381688623134
3.191147797709255,2.901611175206184,3.9362553868115695,3.074308571005666
3.0101216017964463,2.754569750575465,3.7077498645940055,2.9015231070483436
2.8388693970773615,2.6148328147650677,3.491666295670141,2.738057272877056
2.676870299108741,2.4820393999442203,3.289099224246801,2.583414398057522
2.523631064750302,2.355846347036157,3.1001638584648044,2.4371241710982585
2.3804635543657793,2.2359274276095644,2.92297176631445,2.2987412428003804
2.24638394050384,2.121972509057967,2.7647207757870156,2.1678439035599797
2.1195692663598744,2.0136867609332785,2.6144055284200913,2.064185839907802
1.9996308354131238,1.9107899004049576,2.4716330226815653,1.9667526415280976
1.8862006325981617,1.813015474916155,2.337793636811484,1.8736788649847516
1.7801787211807378,1.720110180203323,2.2263461250592234,1.7897251484216228
1.6916742635192055,1.631833211936132,2.162953432057092,1.7223862339073794
1.6075324335535819,1.547955649320456,2.101767518272351,1.6609057793133863
1.5275380455279388,1.4682598690888629,2.042695999494087,1.6020984369780435
1.4514865262488894,1.392538988380732,1.985650838670413,1.5458468763251432
1.3791833918213303,1.3227465367794007,1.9422699894210516,1.4920389271242214
1.3104437501800628,1.2606273999048139,1.9045927241253664,1.440567352389135
1.245091828145723,1.201341870459844,1.8677914739835826,1.3913296312738603
1.1829605217961343,1.1447623595173557,1.831840354688777,1.3442277515253507
1.1238909690037795,1.0907669959771964,1.7967144310527112,1.2991680110726813
1.0805411145181045,1.0392393707263123,1.7623896771263765,1.2560608283502366
1.050422191253308,0.9900682922412078,1.7288429381151575,1.2148205609703981
1.021333941886854,0.9431475531210209,1.6960518940052487,1.1753653323781332
0.9932336936881789,0.8983757070623755,1.663995024821893,1.1376168661360693
0.9660807698183362,0.8705184614763184,1.632651577443749,1.1015003275041082
0.9398363898449051,0.8494297045005534,1.6020015339012639,1.0669441719924326
0.9144635753690323,0.8289496756140455,1.5720255810903285,1.033880000580886
0.8936494753092572,0.8090576354393384,1.5427050818357202,1.0022424213112437
0.8746485671346724,0.789733641499351,1.5140220472419263,0.9719689169718062
0.8561189061360994,0.7709585153478898,1.4859591102718757,0.9429997186060849
0.8380459796068838,0.7527138111073461,1.4584995004969004,0.9152776845891936
0.8204158270061842,0.734981785352209,1.431627019963916,0.8887481850268157
0.8032150156764325,0.7177453682796979,1.405326020128343,0.8633589912424298
0.7864306177161234,0.7009881361114187,1.3795813798037129,0.8390601701287853
0.7700501879507636,0.6846942846724127,1.3543784840812012,0.8158039831494844
0.754061742947696,0.6688486040963281,1.3297032041745265,0.79354478978596
0.7384537410232648,0.6534364546077004,1.3055418781477393,0.7722389552341393
0.7232150631933649,0.6384437433344854,1.281881292485422,0.7518447621637209
0.7083349950209085,0.6238569021060464,1.2587086644667096,0.7323223263612042
0.6938032093160661,0.6096628661937692,1.2360116253063538,0.7136335160857102
0.6796097496473658,0.5958490539533597,1.2137782040277678,0.6957418749741422
0.6657450146238463,0.5845632558777359,1.1919968120346374,0.6786125483394347
0.6521997429104524,0.5736317691340873,1.170656228349236,0.6622122127125305
0.6389649989407672,0.5629355616422549,1.149745585487076,0.6465090084852803
0.6260321592929734,0.5524683532066939,1.1292543559389432,0.6314724755177701
0.6133928996966486,0.5422240741668838,1.109172339232718,0.6170734915795701
0.6010391826396224,0.5321968570424361,1.0894896495486637,0.6032842135001615
0.5889632455456658,0.5223810285428802,1.0701967038630968,0.5900780209092777
0.5771575894952402,0.5127711019254511,1.051284210596521,0.5774294624531555
0.5656149684629318,0.5033617696849817,1.0327431587434164,0.565314204377704
0.5543283790465069,0.49414789656074,1.0145648074619409,0.5537089813744053
0.5432910506637766,0.4851245128457661,0.9967406761028087,0.5425915495893393
0.5324964361946517,0.47628680798493883,0.979262534657571,0.531940641700117
0.5219382030468895,0.46763012444863594,0.9621223946074503,0.521735923969698
0.5116102246251081,0.4591499518694736,0.9453125001547449,0.5119579551900668
0.5015065721836621,0.45084192143019,0.928825319819659,0.5025881474325926
0.49162150704493357,0.4427018004912916,0.9126535383862049,0.49360872852553184
0.48194947316551184,0.4347254874476173,0.8967900491815849,0.485002706182662
0.4724850900336046,0.426909006803469,0.8812279466741745,0.4767538337103645
0.4632231458818475,0.41924850445645234,0.8659605193759223,0.4688465772236784
0.45415859120046476,0.4117402431806151,0.8509812430356369,0.46126608430490595
0.4452865325364771,0.40438059829991835,0.8362837741102442,0.453998154041278
0.4366022265653616,0.3971660535434842,0.8218619435017148,0.4470292083809758
0.4281010744222374,0.39009319707446655,0.8077097505479035,0.4403462647494836
0.4197786162802901,0.3831587176847633,0.7938213572561024,0.4339369098707988
0.41163052616475326,0.37635940114815003,0.7801910827686137,0.4277892747404698
0.403652606991339,0.3696921267247646,0.7668133980501463,0.4218920106997618
0.3958407858185581,0.36315386381018755,0.7536829207872964,0.4162342665624905
0.38819110930388684,0.3567416687226833,0.7407944104908366,0.41080566674818914
0.3806997393542288,0.3504526816224638,0.7281427637919446,0.4055962903773191
0.3733629489615948,0.344284123557115,0.7157230099239202,0.400596651286182
0.36617711821535653,0.33823329362759713,0.7035303063813202,0.3957976789210549
0.3591387304828663,0.3322975662694928,0.6915599347488101,0.39119070007285334
0.3522443687506219,0.32647438864441336,0.6798072966923852,0.3867674214153303
0.34549071211854715,0.32076127813671285,0.6682679101059402,0.3825199128114444
0.33887453244031723,0.31515581995088193,0.6569374054065019,0.37844059135409347
0.33239269110299685,0.30965566480520235,0.6458115219717183,0.37452220610889275
0.32604213593959547,0.30425852671744713,0.6348861047135186,0.37075782352810016
0.3198198982684459,0.29896218087860804,0.6241571007821068,0.36714081350615246
0.3137230900536111,0.29376446161080816,0.6136205563947311,0.36366483604857935
0.3077489011808035,0.288663260405738,0.603272613783925,0.3603238285272972
0.30189459684356934,0.28365652404012043,0.5931095082601378,0.357111993496481
0.29615751503473825,0.27874225276486597,0.5831275653839235,0.3540237870443429
0.2905350641383862,0.27391849856473627,0.573323198243061,0.3510539076572351
0.2850247206177809,0.269183363485472,0.5636929048301855,0.34819728557353263
0.27962402679500215,0.2645349980254863,0.5542332655167219,0.3454490726057409
0.2743305887181318,0.25997159958935334,0.5449409406190826,0.3428046324102253
0.26914207411210644,0.2554914110004439,0.5358126680532889,0.3402595311848656
0.26405621040951127,0.25109271907018627,0.5268452610743364,0.33780952877580434
0.259070782857772,0.24677385322153986,0.5180356060967916,0.335450570175288
0.25418363269936883,0.24253318416437755,0.5093806605932671,0.33317877739339125
0.24939265542185707,0.23836912262058083,0.5008774510675651,0.33099044168717373
0.24469579907463335,0.23428011809674607,0.4925230710994286,0.3288820161315413
0.2400910626495273,0.23026465770249663,0.4843146794579707,0.32685010851677554
0.23557649452243978,0.22632126501248598,0.47624949828098184,0.32489147455835954
0.23115019095337808,0.22244849897026145,0.4683248113174445,0.3230030114053585
0.2268102946423629,0.21864495283224186,0.46053796223069154,0.32118175143421723
0.22255499333880163,0.21490925315013618,0.45288635295977053,0.3194248563154219
0.21838251850203294,0.21124005879021432,0.445367442136672,0.31772961134101235
0.21429114401085658,0.20763605998789694,0.43797874355718847,0.31609342000147683
0.21027918491996495,0.2040959774362159,0.4307178247032697,0.3145137988010516
0.20634499626128577,0.20061856140674836,0.42358230531482266,0.31298837230093896
0.2024869718883428,0.19720259090169603,0.4165698560090154,0.31151486838041564
0.19870354336182533,0.19384687283583876,0.4096781969451988,0.31009111370624665
0.19499317887464257,0.19055024124714467,0.40290509653366957,0.30871502940123896
0.19135438221481732,0.1873115565348796,0.39624837018655934,0.30738462690317603
0.1877856917646497,0.1841297047240988,0.3897058791092103,0.30609800400575626
0.18428567953465402,0.18100359675546598,0.38327552913047747,0.3048533410735306
0.18085295023083758,0.1779321677993783,0.376955269570447,0.30364889742318385
0.17748614035396015,0.17491437659343032,0.37074309214414614,0.30248300786384247
0.1741839173294692,0.17194920480228668,0.36463702989986957,0.30135407938941255
0.1709449786668703,0.16903565639907467,0.35863515619079633,0.3002605880162647
0.16776805114734403,0.16617275706744875,0.35273558367865276,0.2992010757598659
0.1646518900384768,0.16335955362351331,0.34693646336820727,0.2981741477442524
0.16159527833502288,0.16059511345682517,0.34123598367144337,0.2971784694384976
0.15859702602466402,0.15787852398973481,0.33702081572501674,0.29621276401458996
0.15565596937777798,0.15520889215434971,0.3342818503441407,0.2952758098213805
0.15277097026027292,0.15258534388644293,0.33157701995774214,0.29436643796949663
0.14994091546858554,0.15000702363565252,0.328905561726065,0.29348353002233923
0.14716471608598036,0.14747309389134608,0.32626674531260225,0.2926260157884996
0.1444413068593267,0.1449827347235568,0.3236598711141794,0.29179287121113495
0.1417696455955652,0.14253514333841436,0.32108426858974903,0.2909831163500383
0.14040456800457987,0.14012953364752564,0.3185392946825154,0.2901958134523276
0.1390821305669883,0.13776513585077918,0.3160243323302321,0.2894300651078545
0.13777710431217202,0.13544119603207086,0.3135387890588579,0.2886850124856111
0.13648908627033238,0.13315697576746957,0.3110820956549587,0.2879598336475683
0.1352176908968995,0.13091175174536154,0.30865370491254396,0.28725374193654474
0.133962549121822,0.12870481539813142,0.3062530904502174,0.28656598443484965
0.13272330745185068,0.12653547254495565,0.3038797455947788,0.2858958404905873
0.1314996271229133,0.12440304304530433,0.3015331823275931,0.28524262030864855
0.13029118329982986,0.1223068604627591,0.29921293029026774,0.2846056636035462
0.1290976643207728,0.12024627173877869,0.2969185358463531,0.28398433831137354
0.12791877098400872,0.11822063687604947,0.2946495611959634,0.28337803935828704
0.1267542158745998,0.11622932863108174,0.29240558354037827,0.28278618748303147
0.12560372272886178,0.11427173221572126,0.29018619429386106,0.28220822811112534
0.12446702583449967,0.11234724500726165,0.2879909983400577,0.28164363027844225
0.12334386946445097,0.1104552762668525,0.2858196133305013,0.28109188560201276
0.12223400734257639,0.1085952468659164,0.28367166902287577,0.2805525072959722
0.12113720213943666,0.10676658902029365,0.28154680665682186,0.2800250292306702
0.12005322499648982,0.10496874603184816,0.2794446783651823,0.2795090050330449
0.11898185507713624,0.10320117203727722,0.2773649466187147,0.27900400722644825
0.11792287914312002,0.10146333176388003,0.2753072837023811,0.2785096264081871
0.11687609115487999,0.0997547002920465,0.2732713712214674,0.27802547046312576
0.11584129189451847,0.09807476282424119,0.2712568996358329,0.277551163811761
0.11481828861012938,0.09642301446026161,0.2692635678207196,0.2770863466912583
0.1138068946802944,0.09479895997856377,0.26791289536983265,0.27663067446799966
0.11280692929762179,0.09320211362345163,0.26662719214371866,0.2761838169802567
0.11181821717026602,0.09163199889793747,0.26535266586173356,0.2757454579096682
0.11084058824041906,0.09008814836208703,0.2640891010509281,0.27531529418025463
0.10987387741882473,0.08857010343667207,0.2628362916101603,0.2748930353837608
0.10891792433441772,0.08707741421195345,0.2615940403188517,0.2744784032301686
0.10797257309823458,0.08560963926143719,0.2603621583711424,0.27407113102227604
0.10703767208079812,0.08416634546043625,0.259140464934156,0.2736709631532839
0.10611307370221307,0.08274710780929098,0.25792878672916464,0.27327765462637954
0.10519863423425585,0.08135150926109821,0.2567269576344904,0.2728909705953541
0.10429421361378338,0.07997914055380731,0.25553481830904534,0.27251068592532335
0.10339967526681731,0.07862960004654837,0.2543522158354643,0.27213658477267705
0.10251488594269959,0.07730249356005933,0.25317900338183796,0.2717684601834065
0.1016397155577487,0.0759974342210877,0.2520150398811032,0.27140611370900475
0.10077403704787474,0.07471404231064263,0.25086018972719293,0.27104935503917027
0.09991772622964407,0.07345194511598271,0.2497143224870939,0.27069800165057245
0.09907066166930889,0.07221077678622492,0.24857731262800709,0.2703518784709759
0.09823272455935156,0.07099017819146561,0.24744903925883643,0.2700108175580505
0.09740379860210752,0.06978979678531064,0.24632938588528042,0.2696746577922188
0.09658376990006479,0.06860928647071107,0.24521824017783045,0.2693432445829284
0.09577252685245369,0.06744830746900823,0.2441154937520189,0.269016429587758
0.09496996005776681,0.06630652619209451,0.2430210419602894,0.26869407044379356
0.0941759622218652,0.06518361511759832,0.24193478369489374,0.26837603051073766
0.0933904280713484,0.06407925266700598,0.24085662120125817,0.26806217862523624
0.09261325427188433,0.06357855242067623,0.2397864599012698,0.2677523888659302
0.0918443393512095,0.06327488130552517,0.23872420822598595,0.26744654032876175
0.09108358362652846,0.06297503667539561,0.23766977745727647,0.2671445169120861
0.09033088913605752,0.06267895846429805,0.2366230815779391,0.266846207111157
0.08958615957446847,0.06238658830166405,0.23558403712985565,0.26655150382157594
0.08884930023200349,0.06209786942888518,0.23455256307976735,0.26626030415131263
0.08812021793705094,0.061812746620598547,0.23352858069228555,0.26597250924091753
0.08739882100197044,0.06153116611044923,0.23251201340975447,0.2656880240915733
0.08668501917198301,0.061253075521081835,0.23150278673861657,0.26540675740063324
0.0859787235769402,0.0609784237981153,0.23050082814194117,0.2651286214043267
0.0852798466858054,0.06070716114788205,0.22950606693779885,0.26485353172731085
0.08458830226368297,0.06043923897871478,0.22851843420317342,0.2645814072387737
0.08390400533124565,0.06017460984557793,0.22753786268312615,0.2643121699147958
0.08322687212641688,0.059913227397858815,0.22656428670493978,0.2640457447067027
0.08255682006817322,0.059655046330132855,0.2255976420969752,0.2637820594151402
0.08189376772233725,0.05940002233573627,0.2246378661120041,0.2635210445696239
0.08123763476924661,0.059148112062985925,0.22368489735477204,0.2632626333133242
0.08058834197318021,0.05889927307389242,0.22273867571358008,0.2630067612928562
0.07994581115343913,0.058653463805226236,0.2217991422956651,0.2627533665528533
0.07930996515698091,0.058410643531799755,0.22086623936618355,0.2625023894351199
0.07882272067678084,0.058170772331838205,0.21993991029060633,0.2622537724821593
0.0783671381280518,0.05793381105431883,0.2190200994803433,0.2620074603448841
0.07791590412072802,0.05769972128816636,0.21810675234143062,0.2617633996943295
0.07746896176903217,0.05746846533319239,0.21719981522610987,0.2615215391371923
0.07702625541796138,0.057240006172684765,0.21629923538715468,0.2612818291350281
0.076587730598289,0.05706055415976641,0.21540496093478834,0.26104422192694693
0.0761533339836517,0.056943730142705484,0.2145169407960632,0.2608086714556551
0.07572301334962,0.056827772019319656,0.21363512467656176,0.2605751332966946
0.07529671753465442,0.05671267336391339,0.21275946302429838,0.26034356459074387
0.07487439640285504,0.05659842756212086,0.21188990699570254,0.2601139239788409
0.07445600080841652,0.05648502783224363,0.21102640842357334,0.2598861715404082
0.07404148256170484,0.05637246724516609,0.2101689197868899,0.2596602687339481
0.07363079439687642,0.05626073874293136,0.20931739418238937,0.2594361783403003
0.07322388994096418,0.05614983515605809,0.20847178529780508,0.25921386440834326
0.07282072368435888,0.05603974921967203,0.20763204738667906,0.2589932922030375
0.07242125095261698,0.055930473588519325,0.2067981352446635,0.25877442815570445
0.07202542787953081,0.055822000850933695,0.20597000418722522,0.2585572398164458
0.07163321138139941,0.05571432354181227,0.2051476100286791,0.25834169580860944
0.0712445591324406,0.05560743415466607,0.20433090906247564,0.2581277657852125
0.07085942954129001,0.05550132515279327,0.20351985804267225,0.25791542038723486
0.07047778172853289,0.0553959889796386,0.20271441416652247,0.25770463120370396
0.07009957550521898,0.055291418068374565,0.20191453505812174,0.2574953707334901
0.06972477135231278,0.055187604850762684,0.2011201787530481,0.25728761234874115
0.06935333040103336,0.05508454176533428,0.2003313036839438,0.2570813302598802
0.06898521441404093,0.05498222126493113,0.1995478686669807,0.256876499482103
0.06862038576742863,0.05488063582364788,0.19876983288916716,0.2566730958033066
0.06825880743348106,0.05477977794321387,0.19799715589643685,0.25647109575338894
0.0679004429641622,0.054679640158843856,0.19722979758248305,0.2562704765748569
0.06754525647529735,0.05458021504459809,0.19646771817829478,0.25607121619468926
0.06719321263141609,0.05448149521827894,0.19571087824234845,0.25587329319739816
0.0668442766312235,0.05438347334589022,0.19495923865142206,0.25567668679923594
0.06649841419367042,0.054286142145694716,0.19421276059199477,0.25548137682349914
0.06615559154459338,0.05418949439188869,0.19347140555219422,0.2552873436768821
0.06581577540389674,0.054093522917921244,0.19273513531426212,0.25509456832683325
0.06547893297325166,0.053998220619483006,0.19200391194750654,0.2549030322798708
0.0651450319242865,0.053903580457180356,0.19127769780171033,0.25471271756081715
0.0648140403872457,0.05380959545892228,0.19055645550096978,0.25452360669291174
0.06448592694009439,0.05371625872203689,0.1898401479379368,0.2543356826787618
0.06416066059804809,0.053623563415131525,0.18912873826843835,0.25414892898210023
0.06383821080350649,0.053531502779721296,0.18842218990645354,0.2539633295103089
0.06351854741637314,0.05344007013163632,0.1877204665194212,0.25377886859767945
0.06320164070474196,0.053349258862223525,0.18702353202386224,0.25359553098937654
0.06288746133593365,0.05325906243936129,0.1863313505812927,0.25341330182607397
0.06257598036786574,0.053169474408295225,0.18564388659441122,0.25323216662923664
0.06226716924074016,0.05308048839231039,0.18496110470354465,0.25305211128701566
0.06196099976903374,0.05299209809325145,0.18428296978333014,0.25287312204073464
0.06165744413377755,0.0529042972919026,0.18360944693962344,0.2526951854719398
0.06135647487511131,0.05281707984823636,0.18294050150661723,0.25251828848998903
0.06105806488510057,0.05273043970154123,0.18227609904415165,0.25234241832015686
0.06076218740080411,0.052644370870439494,0.1816162053352104,0.252167562492235
0.06046881599758014,0.052558867452799585,0.18096078638358315,0.2519937088296031
0.06017792458262042,0.05247392362555836,0.18030980841168875,0.2518208454387535
0.05988948738870187,0.05238953364445065,0.1796632378585432,0.25164896069924797
0.05960347896814541,0.052305691843664404,0.17902104137786612,0.25147804325408873
0.05931987418697299,0.05222239263541917,0.17838318583631074,0.2513080820004848
0.05903864821925381,0.05213963050948034,0.1777496383118149,0.251139066081
