jointFR1,jointFR2,jointFR3,force
6.020523900675045,5.722691257583901,7.292822707264496,6.143147288834129
5.686220623240561,5.407326683792005,6.878579381546402,5.801177402003127
5.36996349539905,5.1089447098613965,6.486854509865882,5.477692600238565
5.070787932809644,4.826638401158523,6.162592747683712,5.171704181342118
4.787780719106512,4.559549104698244,5.86741567680291,4.8822761123243135
4.520077274334536,4.306863882043932,5.585645698642246,4.608522228211287
4.2668590685510805,4.067813078625627,5.316685275821403,4.349603579729219
4.027351172881222,3.841668022228636,5.0599633053350175,4.104725921956389
3.800819940723572,3.6277388437899205,4.814933952646962,3.8731373364529436
3.586570812191789,3.4253724140042436,4.581075537143166,3.654125979776433
3.3839462352441645,3.2339503895871746,4.357889466681814,3.4470179516678767
3.1923236973015507,3.052887363368968,4.144899219079316,3.251175276549885
3.0111138614831954,2.881629112702758,3.9416493684655554,3.065993992316112
2.839758801901953,2.7196509409636302,3.7477046545328974,2.9190254285146517
2.677730332755603,2.566456107192551,3.5626490927904206,2.7970828575570916
2.52452842623063,2.421574339201943,3.386085124017904,2.6807073365136143
2.379679714499533,2.2845604257084555,3.217632801193649,2.569647802664287
2.2427360713435074,2.1549928832940215,3.056929012246119,2.4636644578212543
2.1132732691695915,2.032472694219437,2.903626737052062,2.3625282639364134
1.9908897074162515,1.9166221113258244,2.775984634834004,2.266020461277066
1.8752052085541278,1.8070835264593708,2.6855645135236705,2.173932108160084
1.7658598780902082,1.7187044244265184,2.6016421093838944,2.0860636412801874
1.698965888505256,1.6384786820360684,2.544888009896238,2.002224455711166
1.6442405088175653,1.5618766424812505,2.497370249409033,1.9222325036999957
1.591209034275184,1.4887370875232926,2.4507550338286475,1.8459139114132204
1.5398196192598967,1.4189059268637947,2.4050238167669056,1.773102612832562
1.4900220014350805,1.3522358838224233,2.3601584852647894,1.7036400000326088
1.4417674532231048,1.288586194859775,2.316141347893999,1.6373745891077987
1.3950087347841618,1.230644337214824,2.272955123240405,1.5741617010486406
1.3497000484492327,1.1920736754976449,2.230582928755584,1.513863156898474
1.30579699456142,1.154691892136751,2.189008269963141,1.4563469865519365
1.2632565286813842,1.1184626464981784,2.1482150300070657,1.4014871505849222
1.222036920114026,1.0833507069409374,2.108187459529859,1.349163274533077
1.1820977117149722,1.0493219168531152,2.068910166868635,1.299260395061971
1.1433996809367242,1.01634316173794,2.030368108557876,1.2516687174969876
1.1059048020756421,0.9843823373167853,1.9925465801279465,1.2062833842047669
1.0695762096821868,0.9534083186171556,1.955431207188894,1.1630042533407694
1.0343781630980398,0.9233909300147345,1.919007936789476,1.1217356874992288
1.0012260692729733,0.8943009161995585,1.8832630290417294,1.0823863518225338
0.9692742442388361,0.8661099140373736,1.8481830490017792,1.0448690211468479
0.9383229823750527,0.8387904252981251,1.8137548587979329,1.0091003957797515
0.9083414513683635,0.8123157902244642,1.7799656099974568,0.9750009255237329
0.8792997614215147,0.7866601619140159,1.746802736203751,0.9424946415766506
0.8511689365143127,0.7617984814899852,1.7142539458759622,0.911508995956777
0.8239208865427325,0.7377064540354918,1.6857252663148186,0.8819747081158067
0.7988143698082926,0.7143605252678391,1.6581615501856497,0.853825618418254
0.7841776213204321,0.6917378589296395,1.6311025854677952,0.8269985481800595
0.769814113914347,0.66981631487448,1.6045380917331142,0.8014331659729614
0.755718370652578,0.6485744278255319,1.5784580214893356,0.7770718599143146
0.7418850376269861,0.6279913867861606,1.5528525543436293,0.753859615674572
0.7283088807601286,0.6080470150822903,1.5277120913256361,0.7317438999466319
0.7149847827033974,0.5887217510169125,1.503027249365283,0.7106745491326821
0.7019077398285986,0.5699966291177212,1.4787888559208522,0.690603663015116
0.6890728593097686,0.5518532619595203,1.4549879437529178,0.6714855031885305
0.6764753562921546,0.5342738225435558,1.4316157458398964,0.6532763960397807
0.6641105511453893,0.5187366902483261,1.4086636904310879,0.6359346400726157
0.6519738667980103,0.5095344731171558,1.3861233962332158,0.6194204173824996
0.6400608261505766,0.500503111568045,1.3639866677265928,0.6036957090959313
0.6283670495647363,0.49163917884190095,1.3422454906071608,0.5887242145968751
0.6168882524256997,0.48293932536930967,1.3208920273507685,0.5744712743708487
0.6056202427756651,0.4744002767547843,1.29991861289616,0.5609037963048049
0.5945589190158342,0.4660188318223332,1.2793177504432567,0.5479901852881649
0.5837002676747427,0.457791860720224,1.2590821073634229,0.5357002759672939
0.5730403612407134,0.44971630308290816,1.2392045112184946,0.5240052685123143
0.5632368544878757,0.44178916624814407,1.2196779458854685,0.5128776672614532
0.5540699375063336,0.4340075235274314,1.2004955477838193,0.5022912221141661
0.5450704589195089,0.4263685125279402,1.181650602202529,0.4922208725500229
0.5362350095855911,0.41886933352418704,1.1631365397239777,0.48264269415585886
0.5275602576931614,0.41150724787777243,1.144946932741952,0.47353384754893624
0.5190429468244822,0.40427957650356133,1.1270754920710944,0.46487252958889436
0.5106798940714365,0.39718369838074613,1.1095160636452068,0.4566379267760535
0.5024679882025898,0.39021704910728744,1.0922626253018943,0.4488101707382271
0.49440418787989343,0.38337711949628756,1.075309283651115,0.4413702957125683
0.48648551992359973,0.3766614542129025,1.0586502710252725,0.43430019793316027
0.47870907762399195,0.3700676504504499,1.0422799425085545,0.42758259683905636
0.4710720190985864,0.363593356644419,1.0261927730433003,0.4212009980212857
0.46357156569349495,0.35723627122313767,1.0103833546112337,0.41513965783099205
0.45620500042768225,0.35099414139389623,0.994846393487472,0.40938354957434914
0.4489696664788871,0.34486476196336885,0.9795767075652768,0.40391833122322657
0.44186296571001576,0.33884597419122203,0.9645692237495795,0.39873031457375446
0.4348823572348506,0.3329356646758304,0.9498189754173665,0.39380643578797286
0.42802535602195185,0.3271317642710689,0.9353210999430701,0.38913422725665114
0.4212895315356659,0.3214322470331788,0.9210708362871638,0.3847017907241287
0.4146725064131827,0.31583512919674844,0.9070635226462145,0.3804977716186808
0.40817195517662114,0.3103384681788775,0.8932945941626962,0.3765113345344356
0.40178560297914695,0.30494036161063204,0.8797595806929175,0.37273213981328496
0.3955112243841614,0.299638946394924,0.8664541046314678,0.3691503211775386
0.38934664217662585,0.2944323977899869,0.8533738787906269,0.36575646436627385
0.3832897262056151,0.2893189285176397,0.8405147043332379,0.36254158673043885
0.3773383922572205,0.2842967878955665,0.827872468757578,0.35949711774377663
0.3714906009569487,0.27936426099286543,0.8154431439328069,0.356614880388559
0.36574435670078825,0.2745196678081408,0.8032227841836226,0.3544233511962025
0.36009770661414003,0.26976136246944765,0.7912075244227783,0.3561723898182816
0.35454873953783245,0.2650877324554127,0.7793935783301658,0.3578016674253408
0.3490955850404639,0.26049719783688347,0.767777236577206,0.3593171863160237
0.34373641245633785,0.2559882105384809,0.7563548650953194,0.360724668734398
0.3384694299482792,0.2515592536194495,0.7451229033872873,0.3620295696135698
0.33329288359463843,0.2472088405732204,0.7340778628803495,0.36323708874514715
0.3282050564998131,0.24293551464512436,0.7232163253199195,0.36435218240031053
0.32320426792763485,0.23873784816771,0.7125349412028232,0.36537957442709945
0.3182888724569892,0.2346144419131408,0.7020304282490044,0.3663237668474125
0.3134572591590539,0.23056392446216084,0.6916995699106743,0.3671890499761826
0.3087078507955599,0.22658495158914266,0.6815392139178966,0.3679795120841606
0.30403910303749604,0.222676205662736,0.6715462708596511,0.36869904862480496
0.2994495037036962,0.21883639506166536,0.6617177127994196,0.3693513710448355
0.29493757201876253,0.21506425360522768,0.6520505719243925,0.3699400151971477
0.29050185788979566,0.21135853999806503,0.6425419392273939,0.37046834937393924
0.2861409412014175,0.20771803728879673,0.6331889632206738,0.3709395819771043
0.28185343112858746,0.20414155234210846,0.6239888486807141,0.37135676884218394
0.27763796546672687,0.20062791532391527,0.6149388554232467,0.3717228202314329
0.2734932099786811,0.19717597919921886,0.6060362971076778,0.37204050751086815
0.2694178577580617,0.19378461924230045,0.5972785400701563,0.37231246952549346
0.265410628608525,0.1904527325588959,0.5886630021845369,0.3725412186862611
0.2614702684385552,0.18717923762001637,0.5801871517505026,0.37272914678172697
0.2575955486713338,0.18396307380708382,0.5718485064081507,0.37287853052676656
0.25378526566928744,0.18080320096806551,0.5636446320783428,0.3729915368601744
0.25003824017292053,0.1776985989842998,0.555573141928162,0.3730702280024364
0.24635331675354688,0.17464826734771371,0.547631695360816,0.37311656628445
0.2427293632795486,0.17165122474814803,0.5398179970293644,0.37313241875750003
0.2391652703958002,0.16870650867050646,0.5321297958736497,0.373119561594325
0.2356599510159046,0.16581317500146237,0.5245648841798372,0.3730796842906676
0.23221233982690045,0.16297029764545962,0.517121096661983,0.37301439367628697
0.228821392806108,0.1601769681497553,0.5097963095650662,0.3729252177440068
0.2254860867497903,0.15743229533825648,0.5025884397889364,0.37281360930498475
0.22220541881331704,0.15473540495391774,0.49549544403264023,0.37268094947802644
0.21897840606252528,0.1520854393094639,0.48851531795861214,0.3725285510204138
0.2158040850359814,0.14948155694621773,0.4816460953762205,0.3723576615073828
0.21268151131785654,0.1469229323008175,0.4748858474441817,0.3721694663670667
0.20960975912113539,0.1444087553796099,0.46823268189136,0.37196509177741643
0.20658792088088698,0.1419382314405198,0.4616847422554964,0.37174560743130813
0.20361510685733283,0.13951058068219774,0.45524020713940305,0.37151202917578874
0.20069044474845593,0.13712503794025327,0.4488972894841967,0.3712653215311188
0.19781307931190104,0.13478085239039034,0.44265423585913455,0.37100640009504127
0.1949821719959231,0.13247728725826408,0.4365093257676389,0.3707361338374433
0.1921969005791489,0.13021361953588445,0.43046087096910735,0.370455347290358
0.18945645881892156,0.12798913970439868,0.42450721481611375,0.3701648226380242
0.18676005610800586,0.1258031514630859,0.41864673160661536,0.3698653017115131
0.18410691713943736,0.12365497146440857,0.41287782595079814,0.3695574878922292
0.1814962815793044,0.12154392905496186,0.40719893215218916,0.3692420479283983
0.17892740374725868,0.11946936602217434,0.401608513602693,0.36891961366846926
0.17639955230455465,0.11743063634661194,0.396105062191199,0.36859078371518306
0.1739120099494244,0.11542710595974576,0.3906870977254331,0.36825612500389093
0.17146407311959974,0.11345815250704455,0.3853531673667232,0.36791617430854595
0.1690550517017979,0.11152316511626043,0.3801018450773628,0.3675714396786347
0.16668426874799333,0.10962154417077669,0.37493173108026645,0.36722240181017274
0.16435106019830187,0.10775270108789253,0.36984145133061475,0.3668695153537419
0.16205477461030912,0.10591605810192378,0.364829656999196,0.3665132101624228
0.15979477289467894,0.10411104805199839,0.3598950239671621,0.3661538924823352
0.1575704280568829,0.10233711417443375,0.3550362523319224,0.3657919460883896
0.15538112494489545,0.10059370989958266,0.3502520659238997,0.3654277333677264
0.15322626000270406,0.09888029865303899,0.3455412118338963,0.365061596353214
0.1511052410294877,0.09719635366109708,0.34090245995080193,0.36469385770926843
0.14901748694432077,0.09554135776036338,0.33633460250940783,0.3643248216721505
0.1469624275562638,0.0939148032114176,0.33183645364807135,0.3639547749468136
0.14493950333970554,0.09231619151642939,0.3274068489760047,0.36358398756226284
0.1429481652148254,0.09074503324063216,0.32304464514995446,0.36321271368731345
0.1409878743330478,0.08920084783756616,0.31874871946004624,0.3628411924085432
0.1390581018673646,0.08768316347799793,0.31451796942457855,0.3624696484721578
0.13715832880740372,0.08619151688243082,0.31035131239355285,0.3620982929914054
0.13528804575912712,0.08472545315712138,0.3062476851607323,0.3617273241211073
0.1334467527490421,0.08328452563351968,0.30220604358402636,0.3613569277008004
0.1316339590328157,0.08186829571105253,0.29822536221400875,0.3609872778679163
0.12984918290818223,0.08047633270317206,0.29430463393037165,0.3606185376423635
0.12809195153203948,0.07910821368659432,0.29044286958613497,0.36025085948381175
0.12636180074162928,0.07776352335365294,0.28663909765942397,0.3598843858229239
0.12465827487970357,0.07644185386769625,0.28289236391264394,0.35951924956771997
0.12298092662357721,0.07514280472145746,0.2792017310588726,0.3591555745862083
0.12132931681797349,0.07386598259833149,0.2755662784353079,0.35879347616636914
0.1197030143115695,0.07261100123648895,0.271985101683603,0.3584330614545169
0.1181015957971512,0.07137748129576488,0.2684573124369327,0.35807442987303706
0.11652464565529083,0.070165050227259,0.26498203801363185,0.35771767351843
0.11497175580146134,0.06897334214558487,0.2615584211172548,0.3573628775405735
0.11344252553650438,0.06780199770370904,0.2581856195429111,0.35701012050405345
0.11193656140037142,0.06665066397032188,0.2548628058897291,0.3566594747323869
0.11045347702905889,0.06551899430968372,0.2515891672793076,0.3563110066359214
0.10899289301466053,0.06440664826388937,0.24836390508002215,0.3559647770241585
0.10755443676846269,0.06331329143749892,0.2451862346370468,0.3556208414032137
0.1061377423870091,0.06223859538448112,0.24205538500796586,0.3552792502590981
0.10474245052106487,0.06118223749741886,0.23897059870384396,0.35494004932746803
0.10336820824741014,0.06014390089892613,0.2359311314356367,0.35460327985046924
0.10201466894339645,0.059123274335227516,0.2329362518658138,0.35426897882126906
0.10068149216420019,0.05812005207185472,0.22998524136508136,0.35393717921683443
0.09936834352270912,0.05713393379141024,0.22707739377409042,0.35360791021951177
0.0980748945719801,0.056164624493357185,0.2242120151700111,0.35328119742791075
0.0968008226902071,0.05521183439578764,0.22138842363787514,0.3529570630575948
0.09554581096814063,0.05427527883912858,0.21860594904656727,0.3526355261320425
0.0943095480989011,0.05335467819174339,0.215863932829373,0.35231660266433507
0.09309172827012976,0.05244975775738642,0.2131617277689728,0.3520003058299952
0.09189205105842299,0.05156024768447326,0.2104986977867891,0.35168664613138634
0.0907102213259964,0.05068588287712522,0.20787421773658488,0.35137563155406704
0.08954594911952696,0.049826402907952316,0.20528767320222574,0.3510672677154687
0.0883989495711226,0.04898155193253512,0.20273846029950593,0.3507615580062585
0.08726894280136996,0.048151078605572384,0.2002259854819557,0.3504585037247231
0.08615565382441237,0.047334735998656174,0.19774966535053706,0.35015810420449744
0.08505881245501089,0.04653228151964145,0.19530892646714637,0.3498603569359541
0.0839781532175432,0.0457434768335776,0.19290320517183712,0.349565257681542
0.08291341525689563,0.044968087785165645,0.19053194740368462,0.3492728005853625
0.08186434225120476,0.044205884322712385,0.18819460852521064,0.3489829782772451
0.08083068232640664,0.04345664042354919,0.1858906531502913,0.3486957819715918
0.07981218797255224,0.04272013402088287,0.18361955497547355,0.34841120156122074
0.07880861596184878,0.04207215634288236,0.18138079661462414,0.34812922570645655
0.07781972726838787,0.04145798029925435,0.17917386943684277,0.34784984191968005
0.07684528698952231,0.04085351069238857,0.1769982734075628,0.34757303664556116
0.07588506426885398,0.04025858490619899,0.17485351693277718,0.34729879533716945
0.07493883222079682,0.0396730432233699,0.17273911670631992,0.34702710252816116
0.07400636785667904,0.03909672876968456,0.17065459756013568,0.3467579419012301
0.07308745201235026,0.038529487459521894,0.16859949231747628,0.34649129635299036
0.07218186927725978,0.037971167942492445,0.1665733416489601,0.3462271480554744
0.07128940792497293,0.03742162155118972,0.16457569393143445,0.3459654785143904
0.07040985984509351,0.03688070225002926,0.16260610510958018,0.34570626862430853
0.06954302047656105,0.036348266585151834,0.16066413856020012,0.34544949872090924
0.06868868874229221,0.035824173635366,0.15874936495913716,0.3451951486304451
0.06784666698513649,0.035308284964106706,0.1568613621507613,0.3449431977165406
0.06701676090511738,0.034800464572386225,0.15499971501997778,0.3446936249244624
0.06619877949793027,0.034300578852715646,0.15316401536669688,0.34444640882297894
0.0653925349946697,0.03380849654397439,0.1513538617827206,0.3442015276439284
0.0645978428027587,0.03332408868720682,0.14956885953098698,0.34395895931960185
0.06381452144805402,0.03284722858232453,0.1478086204271314,0.3437186815180475
0.06304239251810137,0.03237779174569472,0.14607276272331116,0.34348067167640206
0.062281280606515735,0.03191565586859363,0.14436091099424764,0.3432449070323357
0.06153101325846196,0.031460700776507144,0.14267269602543964,0.3430113646537116
0.060791420917212,0.03101280838925824,0.1410077547035029,0.34278002146654096
0.06006233687175525,0.030571862681943618,0.13936572990859353,0.34255085428131826
0.05934359720543925,0.03013774964666177,0.1377462704088681,0.34232383981781755
0.05863504074561841,0.029710357255013753,0.13614903075694484,0.342098954728426
0.05793650901428918,0.029289575421360958,0.13457367118831676,0.3418761756200822
0.0572478461796903,0.028875295966822312,0.13301985752168277,0.3416554790748937
0.056568899008847505,0.028467412583994767,0.13148726106115727,0.3414368416694955
0.055899516821042335,0.028065820802381125,0.12997555850031306,0.34122023999321505
0.055239551442185494,0.027670417954509918,0.1284844318280316,0.34100565066509936
0.05458885716007529,0.0272811031427318,0.1270135682361111,0.3407930503498662
0.05394729068052239,0.026897777206678075,0.1255626600286075,0.34058241577282855
0.05331471108432252,0.026520342691366605,0.12413140453286498,0.3403737237338469
0.052690979785059086,0.026148703815940866,0.12271950401220866,0.3401669511203592
0.05207596048771819,0.02578276644302907,0.1213266655802594,0.3399620749195329
0.05146951914809894,0.025422438048709195,0.11995260111684392,0.339759072229583
0.05087152393300224,0.025067627693066752,0.11859702718546261,0.33955792027030585
0.05028184518118177,0.02471824599133393,0.11725966495228857,0.3393585963928586
0.04970035536504112,0.024374205085594958,0.11594024010666426,0.3391610780888328
0.04912692905306148,0.024035418617048387,0.11463848278306554,0.33896534299865033
0.04856144287294473,0.02370180169881214,0.11335412748450735,0.33877136891932735
0.04800377547545684,0.02337327088926111,0.11208691300735607,0.3385791338116243
0.04745380749895724,0.023049744165884956,0.11083658236752703,0.33838861580663426
0.04691142153459968,0.022731140899655722,0.10960288272803598,0.3381997932118177
0.046376502092191005,0.022417381829894167,0.1083855653278778,0.3380126445165311
0.04584893556669387,0.02210838903962392,0.10718438541220698,0.33782714839706607
0.04532861020536049,0.021804085931403705,0.10599910216379538,0.33764328372122865
0.04481541607548413,0.021504397203627013,0.10482947863573844,0.3374610295524847
0.04430924503275591,0.02120924882727998,0.10367528168538942,0.3372803651536903
0.04380999069021437,0.020918568023146566,0.10253628190949371,0.33710126999044
0.04331754838777566,0.020632283239453597,0.10141225358050465,0.33692372373404
0.042831815162332684,0.020350324129944586,0.10030297458405046,0.33674770626414074
0.04235268971841137,0.020072621532374046,0.09955987931437993,0.3365731976710368
0.04188007239937298,0.019799107447414255,0.09926460662440362,0.33640017825766333
0.041413865159151235,0.01952971501796441,0.09897149175789943,0.3362286285412964
0.04095397153451343,0.019264378508855373,0.09868049128918677,0.3360585292549806
0.040500296617835115,0.019003033286940252,0.09839156320799414,0.33588986134869947
