jointHR1,jointHR2,jointHR3,force
6.287779694859319,5.279746448848995,7.643935969083831,5.90948247893473
5.94806031453445,5.002817231985622,7.235320794182495,5.593793312254679
5.626128804897443,4.740358465573621,6.847708206982398,5.294598365513033
5.321060865703932,4.491617412335904,6.480026591768834,5.011040963063353
5.031980121348776,4.2558804045525225,6.131258900355278,4.742308842476422
4.7580556377042935,4.032470818409403,5.800439875345221,4.487631853380107
4.498499567589545,3.8207471533160406,5.486653414655196,4.246279775501992
4.252564918208099,3.623443024387738,5.189030070113359,4.017560249740575
4.019543434236705,3.4364962308196443,4.906744673313531,3.800816816410494
3.7987635905745956,3.259109681363756,4.639014082251517,3.5954270551104957
3.5895886890733566,3.090796106436693,4.38509504259973,3.4008008209504816
3.3914150538614836,2.9310930413403913,4.144282157788703,3.216378572146462
3.203670320156753,2.7795615641454328,3.9159059623606844,3.0416297842508313
3.0258118117239685,2.635785097780552,3.699331093342015,2.876051446530541
2.857325002386536,2.4993682730623137,3.4939545546482202,2.719166636238048
2.699165368495004,2.3699358495651,3.299204069789371,2.5705231667404385
2.5555962487183366,2.247131691389206,3.1145365183839666,2.4296923056810176
2.4193906231340696,2.1306177950344902,2.9394364522180787,2.2962675595458335
2.2901731561437244,2.0200733667291018,2.7734146868033607,2.1698635211954995
2.167587616686538,1.9151939466975882,2.616006964593324,2.050114777100803
2.0512959062375766,1.8156905779806696,2.4667726862126633,1.9395109275582436
1.9409771362516421,1.721289017540419,2.378460741980666,1.8459005466797438
1.8373132659410656,1.6384401019231047,2.3295062540123537,1.7565518268188656
1.7428822503001498,1.5606658005261047,2.2817404684384512,1.6712748657855154
1.6532427822746354,1.486416295387944,2.235127634935939,1.589888160152478
1.5681512197459246,1.4155346253828118,2.189633306812583,1.5122182348313877
1.4873763163856548,1.3478707716100873,2.1452242871107563,1.4380992889689899
1.4106985909953467,1.2832813511715404,2.1018685770941237,1.3673728574449182
1.3379097289292223,1.221629324441695,2.059535327008224,1.2998874872838753
1.2717333353629603,1.162783715237007,2.01819478901105,1.251917947865344
1.2319362081341123,1.1066193433157534,1.9778182721745736,1.2225597381673083
1.201445506248398,1.0530165686655035,1.9383780994627522,1.1941758416302892
1.1737089111167547,1.0018610470589646,1.8998475665959647,1.1667288470963133
1.1467386107524726,0.9530434963818938,1.8622009027159883,1.1401828892557766
1.1205082319330155,0.9064594732585823,1.82541323276963,1.1145035824616887
1.0949924888102687,0.8620091595213456,1.7894605415329174,1.0896579574259575
1.0701671328920617,0.8195971580904139,1.7543196392013805,1.0656144006711885
1.0460089054567137,0.779132297849716,1.7199681284754045,1.0423425966170292
1.0224954922790284,0.7405274471223072,1.6863843730729253,1.0198134721854535
0.9996054805523146,0.7036993353666384,1.6535474676048727,0.9979991438144509
0.9773183178968641,0.6760131024254546,1.6214372087517566,0.9768728667744702
0.9556142733508473,0.6523209478506898,1.5900340676826394,0.956408986686622
0.934474400244856,0.6346518153122319,1.5593191636604522,0.9365828931460933
0.9138805008663156,0.6175492829954051,1.529274238780199,0.9173709753584776
0.893815092824726,0.6009924711497642,1.4998816337890657,0.8987505797007993
0.874261377033185,0.5849613405438162,1.4711242649397929,0.8806999691228881
0.8552032072259258,0.5694366569748416,1.44298560183092,0.8631982843084781
0.8366250609356379,0.5543999573136266,1.4154496461896435,0.846225506518959
0.8185120118582029,0.5398335170169123,1.388500911555066,0.8297624220460926
0.8008497035361067,0.5257203190433543,1.3621244038215587,0.8137905882032612
0.7836243242952727,0.5120440241115967,1.3363056026038087,0.7982923007879109
0.7668225833733326,0.49878894224176507,1.311030443386884,0.7832505629508124
0.7504316881804842,0.48594000552428185,1.2862853004263421,0.7686490554106019
0.7344393226370389,0.47348274206236285,1.2620569703649989,0.7544721079547719
0.7188336265345789,0.4614032510369128,1.2383326565345127,0.7407046721708597
0.7036031758703101,0.44968817884480783,1.2150999539113956,0.7273322953540732
0.6887369641067314,0.4404063288218832,1.1923468346984478,0.7143410955399386
0.6742243843111448,0.43196914618694565,1.1700616345039498,0.7017177376128344
0.6600552121318138,0.4237181978830195,1.1482330390921929,0.6894494104434213
0.6462195895697452,0.41564847400305843,1.1268500716801515,0.6775238050100495
0.6331568748774146,0.40775512944449793,1.1059020807562396,0.6659290934612051
0.6209967733331763,0.4000334776354923,1.0853787283981902,0.6546539090779295
0.609110694224396,0.3924789845202736,1.0652699790681481,0.6436873270969656
0.5974909968395836,0.3850872627924939,1.0458842166572624,0.6330188463570983
0.5861303036841468,0.3778540663659192,1.0280038260831905,0.6226383717328123
0.5750214899820434,0.3707752850722869,1.0104957029731563,0.612536197320959
0.5641576736302272,0.36384693957660147,0.9933493998364543,0.6027029903476335
0.5535322055856131,0.35706517650055863,0.9765548595451119,0.5931297757639098
0.5431386606652179,0.3504262637451932,0.9601023979820226,0.5838079215004425
0.5329708287410115,0.3439265860042418,0.9439826875234544,0.574729124352277
0.5230227063118539,0.33756264046007517,0.9281867413145172,0.5658853964664515
0.5132884884356972,0.3313310326544144,0.9127058982982672,0.5572690524061924
0.5037625610059957,0.3252284725263835,0.8975318089611007,0.548872696766638
0.4944394933569989,0.3192517706107743,0.8826564217589553,0.5406892123181388
0.48531403118329597,0.31339783438970875,0.868071970190634,0.5327117486542209
0.47638108975964977,0.3076636647911882,0.8537709604862428,0.5249337113223108
0.4676357474477852,0.30204635282828735,0.8397461598803497,0.5173487514162773
0.45907323947740997,0.2965430763730382,0.8259905854409907,0.5099507556107631
0.45068895198931613,0.2911510970592957,0.8124974934271012,0.5027338366181565
0.44247841632896456,0.2858677573091341,0.7992603691483212,0.49569232404989066
0.4344373035794803,0.28069047747755066,0.7862729173024307,0.4888207556645655
0.42656141932348635,0.27561675311048833,0.7735290527669119,0.4821138689861423
0.41884669862368257,0.27064415231139854,0.7610228918223119,0.47556659327620643
0.4112892012125338,0.2657703132117784,0.7487487437861908,0.4691740418449851
0.40388510688186396,0.26099294154131,0.7367011030375121,0.4629315046864799
0.39663071106357206,0.2563098082934174,0.7248746414123342,0.4568344414237148
0.3895224205930802,0.25171874748224504,0.7132642009526127,0.4508784745507094
0.3825567496475017,0.24721765398722934,0.7018647869908463,0.4450593829583767
0.37573031585088157,0.24280448148159534,0.6906715615541528,0.43937309573209826
0.3690398365392016,0.23847724044128343,0.6796798370721739,0.4338156862092703
0.36248212517817585,0.23423399623094382,0.6688850703740088,0.42838336628562074
0.35605408792717247,0.23007286726379633,0.6582828569600865,0.4230724809595893
0.3497527203428997,0.22599202323228534,0.6478689255356134,0.4178795031045279
0.34357510421677784,0.2219896834065878,0.6376391327928848,0.4128010284589266
0.33751840454019355,0.21806411499816541,0.6275894584303869,0.40783377082529765
0.33157986659209193,0.21421363158567114,0.6177160003972124,0.4029745574687565
0.32575681314361044,0.2104365916006346,0.6080149703518973,0.3982203247067325
0.32004664177469655,0.20673139687045988,0.5984826893253041,0.3935681136816134
0.31444682229787674,0.20309649121637913,0.589115583577722,0.3890150663084813
0.30895489428456097,0.19953035910410472,0.5799101806408125,0.38455842139044905
0.3035684646894717,0.19603152434501542,0.5708631055355231,0.38019551089441894
0.29828520556898613,0.19259854884581512,0.5619710771575055,0.37592375638040915
0.2931028518893651,0.18923003140467437,0.5532309048220145,0.37174066557788465
0.2880191994210229,0.18592460655197002,0.5446394849606515,0.3676438291028177
0.2830321027151643,0.18268094343379887,0.5361937979626961,0.36363091730947356
0.2781394731592771,0.17949774473653396,0.5278909051541287,0.3596996772711821
0.2733392771081245,0.1763737456507603,0.5197279459077884,0.3558479298845979
0.26862953408703216,0.17330771287299312,0.5117021348784345,0.3520735670921976
0.26400831506440564,0.1702984436436586,0.5038107593567875,0.3483745492179877
0.25947374079054936,0.16734476481987542,0.49605117673691224,0.3447489024116122
0.25502398019998934,0.16444553198163886,0.4884208120915974,0.3411947161962607
0.2506572488746249,0.1615996285700681,0.48091715585063133,0.3377101411159773
0.2463718075651516,0.15880596505643624,0.4735377615771381,0.3342933864781588
0.24216596076831276,0.15606347814075533,0.4662802438373719,0.33094271818721305
0.23803805535764286,0.15337112997873598,0.4591422761595869,0.32765645666552606
0.23398647926546962,0.15072790743600312,0.45212158907783095,0.32443297485804956
0.2300096602140395,0.14813282136847944,0.4452159682566921,0.32127069631697897
0.226106064493726,0.14558490592791168,0.4384232526932439,0.3181680933631517
0.22227419578636792,0.14308321789154382,0.4317413329926081,0.31512368532092977
0.2185125940318729,0.14062683601499065,0.4251681497137203,0.31213603682348096
0.21481983433629992,0.13821486040740244,0.41870169178207206,0.3092037561855002
0.21119452591971652,0.13584641192805175,0.41233999496633933,0.30632549384054064
0.20763531110219607,0.13352063160350464,0.40608114041597143,0.3034999408402478
0.20414086432639703,0.13123668006457906,0.39992325325694655,0.30072582741290477
0.20070989121522886,0.12899373700232403,0.3938645012430466,0.29800192157881106
0.19734112766317866,0.12679100064228593,0.38790309346012064,0.2953270278201182
0.194033338959931,0.12462768723635226,0.3820372790809421,0.29269998580285533
0.1907853189449752,0.12250303057151041,0.37626534616836405,0.2901196691489682
0.18759588919194936,0.12041628149486178,0.37058562052460875,0.2875849842562924
0.18446389822152567,0.11836670745427674,0.3649964645846102,0.28509486916447135
0.18138822074169159,0.11635359205410051,0.35949627635144465,0.28264829246491036
0.17836775691433257,0.11437623462533081,0.35646245204308213,0.2802442522529452
0.17540143164706778,0.11243394980973048,0.3541437587939622,0.27788177512047935
0.1724881939093364,0.11052606715734142,0.3518533918968192,0.27555991518741546
0.16962701607177363,0.10865193073690632,0.34959062447320544,0.2732777531702863
0.16681689326795843,0.1068108987587108,0.34735476169784385,0.2710343954865481
0.16405684277765267,0.10500234320938545,0.34514513915929945,0.26882897339307626
0.16134590343069005,0.10322564949822394,0.34296112130563916,0.2666606421574522
0.15868313503070852,0.10148021611459118,0.3408020999707173,0.26452858026070575
0.15645799124513293,0.09976545429601719,0.3386674929769251,0.26243198863021994
0.15522188424551725,0.09808078770657752,0.336556742810467,0.26037008990156946
0.15400382090556297,0.09642565212519466,0.33446931536542723,0.2583421277081125
0.1528033375764547,0.09479949514348945,0.3324046987530769,0.2563473659972067
0.15161998899726303,0.09320177587284434,0.3303624021730558,0.25438508837196705
0.15045334741954025,0.09163196466034312,0.3283419548432407,0.25245459745753074
0.14930300177582334,0.09008954281326637,0.32634290498526575,0.25055521429083627
0.14816855688981723,0.08857400233184148,0.32436481886282387,0.24868627773296742
0.14704963272614036,0.0870848456499495,0.3224072798700217,0.24684714390315324
0.14594586367762524,0.08562158538350612,0.32046988766720275,0.24503718563354995
0.1448568978882679,0.0841837440862499,0.31855225736178094,0.2432557919439733
0.14378239661001596,0.08277085401267376,0.31665401873176235,0.24150236753577972
0.14272203359167984,0.08138245688785056,0.3147748154897394,0.23977633230413123
0.141675494498336,0.08001810368391332,0.3129143045852685,0.23807712086791102
0.14064247635967658,0.07867735440295914,0.3110721555436402,0.2364041821165857
0.1396226870458363,0.07735977786615528,0.30924804983915366,0.23475697877334167
0.13861584476930416,0.07606495150883358,0.3074416803011153,0.2331349869738503
0.13762167761159694,0.07479246118136978,0.3056527505508524,0.23153769586004364
0.13663992307344003,0.073541900955649,0.3038809744681441,0.22996460718830938
0.135670327647263,0.07231287293693184,0.30212607568553396,0.22841523495153465
0.1347126464108807,0.0711049870809341,0.30038778710908054,0.22688910501445916
0.13376664264128635,0.06991786101595093,0.2986658504641697,0.2253857547618115
0.1328320874475366,0.06875111986985122,0.2969600158650876,0.22390473275873365
0.13190875942176467,0.06760439610178798,0.29527004140711566,0.22244559842301076
0.13099644430740137,0.06647732933846145,0.2935956927799779,0.22100792170865063
0.13009493468373495,0.06536956621479012,0.29193674290152516,0.2195912828003699
0.12920402966598177,0.06428076021884571,0.2902929715706053,0.21819527181856796
0.1283235346200851,0.06321057154090931,0.28866416513811655,0.21681948853438202
0.1274532608914955,0.062158666926521555,0.2870501161952945,0.2154635420944366
0.12659302554722757,0.061124719533394656,0.2854506232783365,0.21412705075491598
0.12574265113052147,0.06010840879206175,0.2838654905885052,0.212809641624602
0.12490196542747328,0.05910942027014837,0.2822945277269062,0.21151095041653686
0.12407080124502906,0.05812744554014965,0.2807375494431692,0.21023062120798203
0.12324899619976987,0.05716218205059992,0.2791943753973072,0.20896830620835882
0.12243639251694277,0.05621333300053738,0.2776648299340603,0.20772366553486984
0.12163283683922205,0.05528060721714928,0.276148741869074,0.2064963669955116
0.12083818004470881,0.05436371903650977,0.2746459442862872,0.20528608587920028
0.1200522770737053,0.05346238818730914,0.2731562743459428,0.20409250475274524
0.1192749867638202,0.05257633967748537,0.27167957310266355,0.20291531326441445
0.11850617169298766,0.051705303683670045,0.2702156853330633,0.20175420795384666
0.11774569802999973,0.05084901544336046,0.268764459372391,0.2006088920680749
0.11699343539217688,0.050007215149741324,0.26732574695973566,0.19947907538343645
0.11624925670981573,0.04917964784907086,0.26589940309133353,0.19836447403315213
0.11551303809707542,0.04836606334056043,0.2644852858815583,0.19726481034036572
0.11478465872897842,0.04756621607867012,0.26308325643118446,0.19617981265644688
0.11406400072421957,0.04677986507775106,0.2616931787025403,0.19510921520436264
0.11335094903349291,0.046006773818966507,0.26031491940118445,0.1940527579269362
0.11264539133305812,0.04524671015942333,0.25894834786376664,0.19301018633981443
0.11194721792328671,0.044499446243453866,0.25759333595173506,0.1919812513889756
0.1112563216319376,0.04376475841598054,0.2562497579505918,0.19096570931261425
0.1105725977219259,0.04304242713791223,0.2549174904743927,0.18996332150724612
0.10989594380336115,0.04233223690350413,0.2535964123752181,0.1889738543978837
0.10922625974964151,0.041633976159637875,0.2522864046573481,0.18799707931213802
0.10856344761740222,0.04094743722695676,0.2509873503958926,0.18703277235810678
0.10790741157012668,0.04027241622281136,0.24969913465963978,0.1860807143059171
0.10725805780523728,0.03960871298596552,0.24842164443789438,0.18514069047279422
0.10661529448449386,0.03895613100300849,0.24715476857109908,0.18421249061153283
0.10597903166753542,0.038314477336432284,0.24589839768502997,0.18329590880225313
0.10534918124840947,0.03768356255432809,0.24465242412837918,0.18239074334732772
0.10472565689494068,0.037063200661654194,0.24341674191354357,0.18149679666937055
0.10410837399079892,0.036453209033038114,0.24219124666044434,0.18061387521218217
0.10349724958013362,0.035853408347067794,0.24097583554321766,0.17974178934455026
0.10289220231464724,0.03526362252203524,0.23977040723962162,0.17888035326680993
0.10229315240298803,0.0346836786530928,0.2385748618830128,0.17802938492006734
0.10170002156234864,0.03411340695078485,0.2373891010167546,0.17718870589799976
0.10111273297216145,0.03355264068091929,0.2362130275509251,0.17635814136114403
0.1005312112297882,0.0330012161057453,0.2350465457212041,0.17553751995359052
0.09995538230810691,0.03245897242640111,0.2338895610498153,0.1747266737220028
0.09938517351490228,0.031925751726600005,0.23274198030841853,0.1739254380368856
0.09882051345397275,0.03140139891752619,0.2316037114828451,0.17313365151602833
0.0982613319878698,0.03088576168390328,0.2304746637395707,0.17235115595005024
0.09770756020219146,0.03037869043121305,0.2293547473938411,0.17157779622998126
0.09715913037135288,0.029880038234030237,0.2282438738793544,0.17081342027681073
0.09661597592576449,0.029389660785447302,0.22714195571941498,0.1700578789729413
0.09607803142034782,0.029144425463985102,0.22604890649948417,0.16931102609548576
0.09554523250432706,0.029030194117900643,0.22496464084104484,0.16857271825134887
0.09501751589223245,0.028917023598823643,0.2238890743767128,0.16784281481403637
0.09449481933605902,0.028804909904768472,0.222822123726528,0.16712117786213695
0.09397708159852552,0.02869384865121738,0.22176370647535415,0.16640767211942442
0.09346424242738027,0.028583835096124166,0.22071374115133424,0.16570216489652845
0.09295624253070467,0.028474864163637537,0.21967214720533979,0.16500452603412602
0.09245302355316709,0.028366930466605655,0.21863884499135744,0.16431462784760553
0.0919545280531821,0.0282600283279264,0.2176137557477691,0.16363234507315802
0.0914606994809326,0.028154151800794947,0.21659680157946615,0.1629575548152524
0.0909714821572139,0.028049294687908732,0.2155879054407599,0.16229013649545038
0.09048682125306173,0.027945450559677454,0.2145869911190419,0.16162997180252334
0.09000666277012787,0.02784261277149358,0.21359398321915113,0.1609769446438286
0.08953095352176738,0.02774077448010126,0.2126088071484118,0.16033094109790927
0.08905964111480597,0.027639928659117796,0.21163138910230228,0.15969184936827932
0.08859267393195575,0.027540068113741434,0.21066165605072373,0.15905955973836028
0.08813000111484837,0.027441185494692544,0.20969953572482902,0.15843396452753397
0.08767157254765962,0.027343273311422722,0.2087449566043904,0.1578149580482789
0.08721733884129607,0.027246323944626227,0.20779784790566547,0.15720243656435812
0.08676725131812008,0.027150329658095274,0.2068581395697433,0.15659629825002822
0.08632126199718809,0.02705528260994361,0.20592576225133707,0.1559964431502402
0.08587932357997913,0.026961174863235016,0.20500064730800305,0.15540277314180168
0.08544138943659169,0.026867998396043813,0.20408272678976025,0.15481519189547502
0.08500741359238867,0.02677574511097658,0.20317193342908912,0.1542336048389835
0.08457735071506939,0.02668440684418183,0.2022682006312866,0.1536579191208995
0.08415115610215124,0.026593975373871537,0.2013714624651628,0.1530880435753898
0.08372878566884173,0.026504442428380348,0.20048165365405413,0.15252388868779437
0.08331019593628536,0.026415799693783937,0.19959870956713854,0.15196536656101559
0.08289534402016768,0.026328038821100574,0.19872256621103657,0.1514123908826925
0.08248418761966181,0.026241151433094134,0.19785316022168353,0.15086487689314343
0.08207668500670368,0.026155129130696952,0.1969904288564519,0.15032274135404994
0.08167279501558006,0.02606996349907975,0.19613430998651826,0.14978590251786666
0.08127247703281815,0.025985646113371286,0.195284742089455,0.1492542800979341
0.08087569098736264,0.0259021685440608,0.19444166424204012,0.14872779523927696
0.08048239734102941,0.02581952236209062,0.19360501611326586,0.148206370490068
0.08009255707922369,0.025737699143649317,0.19277473795754174,0.1476899297737413
0.07970613170191215,0.025656690474696764,0.19195077060808075,0.147178398361736
0.07932308321483872,0.025576487955214167,0.19113305547045378,0.1466717028468545
0.07894337412097369,0.025497083203208648,0.19032153451631006,0.14616977111721915
0.07856696741218788,0.02541846785847679,0.18951615027724755,0.14567253233080993
0.07819382656114188,0.025340633586140915,0.18871684583883308,0.14517991689057114
0.0778239155133823,0.02526357207996688,0.1879235648347568,0.14469185642006818
0.07745719867963713,0.025187275065481685,0.18713625144111945,0.14420828373968364
